Date,MAR,PM,EIX,CERN,INCY,PAYX,VFC,EBAY,PNR,CRM,HBI,HES,FFIV,RTN,NTAP,HOLX,ETN,KO,SHW,WLTW,NWS,WHR,BXP,MS,ZBH,MSI,CAH,ZTS,UNH,A,MDT,BBY,MSCI,AAPL,LH,WBA,J,DG,AVGO,JNJ,ADSK,NWSA,LUV,FTI,MCO,GPC,MU,GWW,PEP,VNO,MOS,EA,AAL,SLB,TFC,DISH,KEYS,HFC,APH,NEM,DVA,BDX,LOW,GL,CBOE,ABC,MLM,HRB,JBHT,BIIB,SBUX,GPS,NUE,FTV,FDX,MSFT,ANET,TEL,ALLE,AEE,ALL,STT,CHTR,TJX,CMS,DOW,KIM,FLIR,DHI,IRM,FRC,AVB,AON,D,DUK,MGM,USB,HRL,APTV,AJG,BLL,AMT,FCX,L,PKI,LDOS,PH,RHI,EXPD,AIV,SWK,PEAK,IBM,TPR,MCD,ES,TGT,BKR,FLS,XEC,CXO,FISV,CF,WRK,XLNX,FAST,GM,ALXN,V,O,WU,AIZ,ALGN,C,AVY,KHC,CNC,NOC,DLR,DGX,NOV,GLW,XRAY,RMD,CHD,IQV,REGN,JCI,CPRT,SIVB,ABT,PGR,VRTX,TXN,EMR,PPG,UDR,UPS,ATVI,WAB,ULTA,SYY,MDLZ,CFG,IR,ROP,SPGI,UNP,SEE,OXY,FOXA,EW,PLD,APA,IEX,HAL,QRVO,MCHP,CTSH,SJM,NLSN,NWL,CDW,JKHY,PWR,VAR,DOV,EXPE,PKG,STX,IPG,AWK,AAP,HPE,VLO,REG,ADM,COTY,ARE,RF
2019-01-02,107.45999908447266,67.30999755859375,56.75,51.869998931884766,63.560001373291016,65.06999969482422,67.18455505371094,28.850000381469727,37.77000045776367,135.5500030517578,12.670000076293945,42.2400016784668,161.17999267578125,154.13999938964844,60.34000015258789,38.41999816894531,68.61000061035156,46.93000030517578,392.2300109863281,149.67999267578125,11.609999656677246,107.91999816894531,109.1500015258789,40.400001525878906,102.27999877929688,114.77999877929688,45.06999969482422,84.4800033569336,243.49000549316406,65.69000244140625,87.91999816894531,53.599998474121094,146.94000244140625,157.9199981689453,126.43000030517578,68.04000091552734,58.47999954223633,107.70999908447266,253.50999450683594,127.75,128.9600067138672,11.390000343322754,47.13999938964844,19.790000915527344,140.85000610351562,94.79000091552734,32.75,276.5799865722656,109.27999877929688,60.36000061035156,29.18000030517578,80.37000274658203,32.47999954223633,37.20000076293945,44.38999938964844,25.8799991607666,61.41999816894531,51.29999923706055,79.79000091552734,34.47999954223633,51.72999954223633,220.0800018310547,92.2699966430664,76.37000274658203,95.88999938964844,74.44999694824219,170.94000244140625,25.579999923706055,93.23999786376953,304.69000244140625,64.31999969482422,25.75,52.209999084472656,67.3499984741211,163.19000244140625,101.12000274658203,210.5500030517578,75.23999786376953,81.05000305175781,63.529998779296875,81.63999938964844,63.93000030517578,287.989990234375,44.65999984741211,48.310001373291016,,14.579999923706055,43.09000015258789,35.27000045776367,32.099998474121094,87.5,169.1999969482422,144.0399932861328,71.18000030517578,84.69999694824219,25.190000534057617,46.349998474121094,41.33000183105469,61.150001525878906,71.88999938964844,44.66999816894531,156.74000549316406,10.359999656677246,45.08000183105469,76.91999816894531,52.04999923706055,150.38999938964844,56.540000915527344,67.30999755859375,42.349998474121094,120.7300033569336,26.979999542236328,115.20999908447266,34.40999984741211,176.05999755859375,63.4900016784668,66.44000244140625,21.049999237060547,38.189998626708984,62.709999084472656,106.69000244140625,72.20999908447266,42.029998779296875,38.88999938964844,86.8499984741211,25.704999923706055,33.63999938964844,98.05000305175781,132.9199981689453,61.93000030517578,17.139999389648438,90.0999984741211,202.1199951171875,53.529998779296875,89.98999786376953,43.34000015258789,56.5,246.3699951171875,103.19000244140625,82.16999816894531,25.860000610351562,29.8799991607666,37.88999938964844,111.7699966430664,64.43000030517578,114.30999755859375,372.44000244140625,30.5,47.68000030517578,195.83999633789062,69.5,59.22999954223633,164.0800018310547,94.44999694824219,59.75,101.69000244140625,38.38999938964844,97.20999908447266,47.029998779296875,70.86000061035156,247.97000122070312,62.04999923706055,39.88999938964844,30.510000228881836,91.5,266.6099853515625,169.85000610351562,137.77999877929688,35.31999969482422,62.0,,149.24000549316406,57.029998779296875,27.110000610351562,125.05000305175781,27.299999237060547,61.18000030517578,71.3499984741211,63.09000015258789,93.87999725341797,23.530000686645508,18.65999984741211,79.16999816894531,124.19000244140625,29.920000076293945,112.66999816894531,71.25,111.9800033569336,84.55000305175781,39.08000183105469,20.239999771118164,88.7699966430664,157.9199981689453,13.460000038146973,75.55999755859375,56.810001373291016,40.95000076293945,6.949999809265137,111.37000274658203,13.670000076293945
2019-01-03,101.73999786376953,66.44000244140625,56.84000015258789,50.70000076293945,68.05999755859375,63.970001220703125,65.2071533203125,28.31999969482422,36.63999938964844,130.39999389648438,12.520000457763672,42.38999938964844,154.30999755859375,149.7899932861328,57.47999954223633,38.279998779296875,66.62999725341797,46.63999938964844,380.3900146484375,146.5399932861328,11.460000038146973,107.55999755859375,109.61000061035156,39.68000030517578,100.43000030517578,110.76000213623047,44.15999984741211,81.55999755859375,236.85000610351562,63.27000045776367,85.44999694824219,52.5,141.33999633789062,142.19000244140625,123.69999694824219,67.33000183105469,57.29999923706055,107.83999633789062,230.9600067138672,125.72000122070312,121.8499984741211,11.279999732971191,45.61000061035156,19.829999923706055,136.17999267578125,93.27999877929688,31.0,268.0400085449219,108.26000213623047,60.20000076293945,28.450000762939453,78.70999908447266,30.059999465942383,37.599998474121094,44.09000015258789,26.420000076293945,58.31999969482422,49.06999969482422,75.06999969482422,34.380001068115234,50.97999954223633,211.1999969482422,91.16999816894531,75.01000213623047,95.58999633789062,73.37000274658203,170.50999450683594,24.690000534057617,90.88999938964844,307.0,61.529998779296875,25.790000915527344,51.29999923706055,64.62999725341797,157.19000244140625,97.4000015258789,199.60000610351562,72.43000030517578,79.68000030517578,63.689998626708984,80.30000305175781,61.849998474121094,287.5,44.189998626708984,48.400001525878906,,14.550000190734863,41.91999816894531,35.130001068115234,32.61000061035156,85.19000244140625,170.0,141.8800048828125,70.83999633789062,84.66999816894531,24.700000762939453,45.70000076293945,41.68000030517578,60.41999816894531,70.54000091552734,44.2599983215332,157.67999267578125,10.069999694824219,44.52000045776367,72.79000091552734,51.33000183105469,144.83999633789062,52.900001525878906,64.9800033569336,42.720001220703125,117.20999908447266,27.950000762939453,112.91000366210938,33.02000045776367,174.89999389648438,63.45000076293945,65.52999877929688,20.90999984741211,36.43000030517578,61.84000015258789,106.86000061035156,70.11000061035156,40.56999969482422,38.22999954223633,83.58000183105469,24.975000381469727,32.25,100.20999908447266,128.1300048828125,62.47999954223633,16.8700008392334,88.66000366210938,184.77999877929688,52.560001373291016,87.06999969482422,43.310001373291016,54.959999084472656,239.9199981689453,102.66999816894531,80.68000030517578,25.700000762939453,28.030000686645508,37.90999984741211,106.4800033569336,64.29000091552734,109.95999908447266,372.0799865722656,30.010000228881836,46.88999938964844,189.63999938964844,66.22000122070312,58.22999954223633,163.72999572753906,88.87999725341797,58.459999084472656,97.97000122070312,38.58000183105469,94.44999694824219,45.36000061035156,69.4800033569336,243.36000061035156,61.369998931884766,39.7400016784668,30.3700008392334,90.02999877929688,258.79998779296875,164.3699951171875,132.67999267578125,34.72999954223633,61.2400016784668,,143.66000366210938,56.56999969482422,27.18000030517578,121.41999816894531,27.1299991607666,55.63999938964844,66.31999969482422,61.099998474121094,94.58999633789062,23.360000610351562,18.270000457763672,77.12999725341797,121.2300033569336,29.549999237060547,109.80000305175781,69.79000091552734,108.5199966430664,82.88999938964844,36.52000045776367,20.399999618530273,89.12000274658203,162.85000610351562,13.180000305175781,74.19999694824219,56.88999938964844,40.77000045776367,6.789999961853027,112.29000091552734,13.649999618530273
2019-01-04,107.80999755859375,69.55000305175781,58.41999816894531,52.22999954223633,72.2699966430664,66.19999694824219,67.44821166992188,28.969999313354492,38.150001525878906,137.9600067138672,12.899999618530273,45.689998626708984,159.7899932861328,153.74000549316406,59.43000030517578,39.150001525878906,68.52999877929688,47.56999969482422,390.4700012207031,150.5,11.960000038146973,112.81999969482422,111.51000213623047,41.29999923706055,103.86000061035156,115.55999755859375,44.91999816894531,84.76000213623047,239.6199951171875,65.45999908447266,88.12999725341797,52.75,146.60000610351562,148.25999450683594,127.95999908447266,69.56999969482422,59.52000045776367,108.7699966430664,233.22999572753906,127.83000183105469,128.27999877929688,11.770000457763672,47.86000061035156,20.8799991607666,143.27999877929688,93.79000091552734,32.70000076293945,279.1300048828125,110.4800033569336,61.209999084472656,30.389999389648438,84.41999816894531,32.040000915527344,39.09000015258789,45.25,28.280000686645508,61.95000076293945,51.720001220703125,77.54000091552734,34.380001068115234,54.0,216.99000549316406,93.87000274658203,77.66999816894531,98.36000061035156,74.22000122070312,176.38999938964844,25.459999084472656,93.36000061035156,318.3299865722656,63.56999969482422,25.399999618530273,53.83000183105469,67.45999908447266,164.42999267578125,101.93000030517578,202.47000122070312,74.33000183105469,79.5,64.58999633789062,82.66999816894531,64.19000244140625,302.739990234375,45.400001525878906,48.849998474121094,,14.819999694824219,43.380001068115234,36.75,33.18000030517578,87.4000015258789,171.1999969482422,144.5500030517578,72.20999908447266,85.37000274658203,25.770000457763672,46.83000183105469,41.70000076293945,62.619998931884766,72.31999969482422,45.59000015258789,158.30999755859375,10.819999694824219,45.650001525878906,75.88999938964844,53.380001068115234,151.3300018310547,56.09000015258789,66.91999816894531,42.869998931884766,123.1500015258789,27.969999313354492,117.31999969482422,34.27000045776367,178.27999877929688,64.08999633789062,66.43000030517578,21.959999084472656,38.2400016784668,64.93000030517578,112.0999984741211,73.22000122070312,43.959999084472656,39.880001068115234,87.44999694824219,26.0,33.33000183105469,106.0,133.64999389648438,62.459999084472656,17.09000015258789,90.44999694824219,186.7100067138672,55.130001068115234,90.44999694824219,44.4900016784668,56.76499938964844,247.89999389648438,104.80999755859375,82.70999908447266,26.729999542236328,29.209999084472656,39.0099983215332,110.19000244140625,65.05999755859375,115.06999969482422,397.54998779296875,31.209999084472656,48.560001373291016,200.41000366210938,68.11000061035156,59.560001373291016,172.6999969482422,92.9000015258789,59.720001220703125,99.91000366210938,38.52000045776367,97.73999786376953,47.16999816894531,71.25,255.02999877929688,61.849998474121094,40.84000015258789,31.6200008392334,93.0999984741211,267.489990234375,172.25999450683594,137.7899932861328,35.45000076293945,63.209999084472656,,148.72000122070312,58.0,28.31999969482422,129.35000610351562,28.420000076293945,59.369998931884766,69.01000213623047,63.70000076293945,95.87999725341797,24.450000762939453,19.15999984741211,77.87999725341797,124.04000091552734,31.170000076293945,118.6500015258789,72.95999908447266,113.08999633789062,86.16999816894531,38.13999938964844,20.729999542236328,89.79000091552734,158.80999755859375,13.800000190734863,77.01000213623047,57.099998474121094,41.709999084472656,7.159999847412109,113.44000244140625,14.149999618530273
2019-01-07,108.01000213623047,67.41999816894531,57.34000015258789,51.93000030517578,74.20999908447266,65.8499984741211,68.71939849853516,29.469999313354492,38.540000915527344,142.22000122070312,13.3100004196167,47.880001068115234,163.82000732421875,155.36000061035156,59.130001068115234,40.4900016784668,68.7300033569336,46.95000076293945,395.9800109863281,151.61000061035156,12.199999809265137,116.11000061035156,112.20999908447266,41.709999084472656,103.9000015258789,116.0999984741211,45.79999923706055,85.2699966430664,240.0800018310547,66.8499984741211,82.44999694824219,55.7599983215332,147.27999877929688,147.92999267578125,126.9800033569336,69.97000122070312,59.529998779296875,112.94000244140625,237.97999572753906,127.01000213623047,132.72000122070312,11.979999542236328,47.869998931884766,21.700000762939453,143.80999755859375,94.62000274658203,34.0,277.1300048828125,109.52999877929688,62.380001068115234,30.6200008392334,87.58999633789062,32.95000076293945,40.16999816894531,45.61000061035156,28.600000381469727,64.48999786376953,52.34000015258789,78.12000274658203,33.970001220703125,54.369998931884766,218.63999938964844,95.6500015258789,77.95999908447266,96.55000305175781,74.75,179.1699981689453,25.299999237060547,93.23999786376953,322.3999938964844,63.56999969482422,26.56999969482422,53.41999816894531,67.80000305175781,166.72999572753906,102.05999755859375,209.9199981689453,75.80000305175781,80.33000183105469,63.849998474121094,82.54000091552734,64.98999786376953,301.4700012207031,46.619998931884766,48.599998474121094,,15.34000015258789,43.0,37.400001525878906,33.54999923706055,87.45999908447266,170.72000122070312,144.22999572753906,71.51000213623047,85.01000213623047,26.510000228881836,46.61000061035156,42.20000076293945,63.56999969482422,72.11000061035156,46.439998626708984,159.2899932861328,11.0,45.959999084472656,76.72000122070312,53.5,151.8800048828125,55.900001525878906,67.23999786376953,42.900001525878906,125.75,28.299999237060547,118.1500015258789,34.61000061035156,180.22000122070312,63.93000030517578,69.68000030517578,22.549999237060547,39.04999923706055,66.36000061035156,115.0199966430664,73.06999969482422,44.11000061035156,39.95000076293945,89.76000213623047,26.190000534057617,34.36000061035156,107.94000244140625,136.05999755859375,62.279998779296875,17.040000915527344,90.80999755859375,189.9199981689453,55.61000061035156,90.87999725341797,45.33000183105469,57.25,249.8300018310547,106.19999694824219,82.63999938964844,27.729999542236328,29.200000762939453,39.709999084472656,111.22000122070312,65.87999725341797,117.19999694824219,396.6300048828125,31.719999313354492,48.83000183105469,205.0399932861328,69.12999725341797,60.040000915527344,175.85000610351562,94.5,60.16999816894531,100.23999786376953,38.599998474121094,97.41000366210938,48.5,70.56999969482422,271.0,61.79999923706055,41.119998931884766,32.0099983215332,92.12999725341797,269.07000732421875,173.63999938964844,138.64999389648438,35.560001373291016,64.4800033569336,,149.74000549316406,58.939998626708984,28.93000030517578,131.8300018310547,28.81999969482422,59.779998779296875,71.02999877929688,63.599998474121094,97.16999816894531,25.0,19.5,77.56999969482422,123.81999969482422,31.290000915527344,121.93000030517578,73.93000030517578,114.55999755859375,87.0199966430664,39.15999984741211,21.239999771118164,88.83999633789062,161.13999938964844,14.069999694824219,77.08999633789062,57.65999984741211,41.91999816894531,7.550000190734863,114.13999938964844,14.390000343322754
2019-01-08,109.76000213623047,67.87000274658203,57.65999984741211,53.130001068115234,74.9000015258789,66.3499984741211,70.25423431396484,30.0,39.65999984741211,145.72000122070312,13.75,48.47999954223633,164.82000732421875,157.2100067138672,58.66999816894531,40.86000061035156,68.18000030517578,47.47999954223633,398.7900085449219,152.5800018310547,12.319999694824219,118.72000122070312,115.52999877929688,41.45000076293945,101.56999969482422,119.51000213623047,46.5,86.54000091552734,243.2899932861328,67.83000183105469,83.02999877929688,57.400001525878906,150.33999633789062,150.75,128.36000061035156,71.37000274658203,59.630001068115234,113.4800033569336,236.07000732421875,129.9600067138672,133.8699951171875,12.15999984741211,47.540000915527344,22.329999923706055,145.89999389648438,95.1500015258789,33.7400016784668,278.9800109863281,110.58000183105469,64.0199966430664,31.360000610351562,89.0199966430664,32.41999816894531,40.66999816894531,45.720001220703125,28.68000030517578,65.6500015258789,51.81999969482422,79.13999938964844,34.06999969482422,54.060001373291016,222.6999969482422,97.62999725341797,78.86000061035156,93.5199966430664,75.55000305175781,178.47999572753906,25.450000762939453,95.87999725341797,324.44000244140625,63.619998931884766,25.219999313354492,55.2599983215332,68.11000061035156,167.02000427246094,102.80000305175781,214.27999877929688,75.55000305175781,81.44000244140625,64.86000061035156,82.52999877929688,65.2699966430664,300.7099914550781,47.310001373291016,49.33000183105469,,15.65999984741211,43.90999984741211,37.25,34.290000915527344,86.56999969482422,174.25999450683594,144.9199981689453,72.33999633789062,86.08000183105469,27.209999084472656,46.90999984741211,42.310001373291016,67.01000213623047,72.43000030517578,46.90999984741211,161.08999633789062,11.199999809265137,45.849998474121094,78.7699966430664,53.90999984741211,155.0500030517578,57.34000015258789,67.86000061035156,44.08000183105469,128.07000732421875,28.610000610351562,119.83000183105469,35.41999816894531,180.60000610351562,65.0999984741211,69.61000061035156,23.209999084472656,40.0,67.43000030517578,119.44999694824219,73.55000305175781,45.38999938964844,39.84000015258789,88.05000305175781,26.8700008392334,34.810001373291016,108.61000061035156,136.8000030517578,63.189998626708984,17.06999969482422,90.91999816894531,192.9499969482422,55.459999084472656,91.80999755859375,45.369998931884766,58.040000915527344,250.9600067138672,107.33999633789062,84.2300033569336,27.959999084472656,29.479999542236328,39.439998626708984,113.51000213623047,65.72000122070312,119.62999725341797,397.260009765625,31.940000534057617,49.630001068115234,207.05999755859375,68.30000305175781,60.72999954223633,178.19000244140625,94.37999725341797,60.66999816894531,101.06999969482422,39.47999954223633,97.41999816894531,49.970001220703125,71.0,276.0,62.779998779296875,42.08000183105469,32.0099983215332,92.55000305175781,269.1400146484375,175.22999572753906,150.75,36.04999923706055,64.98999786376953,,152.61000061035156,60.900001525878906,29.360000610351562,134.89999389648438,29.200000762939453,59.369998931884766,72.95999908447266,64.31999969482422,99.68000030517578,25.40999984741211,19.700000762939453,80.2699966430664,125.91999816894531,31.770000457763672,122.62000274658203,75.55999755859375,116.97000122070312,89.26000213623047,39.13999938964844,21.889999389648438,90.13999938964844,160.02000427246094,13.800000190734863,77.36000061035156,58.880001068115234,42.70000076293945,7.519999980926514,116.79000091552734,14.539999961853027
2019-01-09,109.19999694824219,67.91000366210938,58.400001525878906,53.43000030517578,73.69999694824219,66.30999755859375,70.40489959716797,30.290000915527344,40.2400016784668,145.99000549316406,13.819999694824219,50.15999984741211,166.0399932861328,157.92999267578125,60.189998626708984,42.08000183105469,69.05999755859375,46.56999969482422,398.1400146484375,151.66000366210938,12.369999885559082,121.48999786376953,117.44000244140625,41.7400016784668,102.4000015258789,116.16000366210938,46.58000183105469,86.2300033569336,243.63999938964844,69.25,84.30000305175781,57.83000183105469,151.80999755859375,153.30999755859375,129.69000244140625,72.2300033569336,60.150001525878906,115.5,246.27999877929688,128.92999267578125,136.77000427246094,12.210000038146973,49.08000183105469,22.920000076293945,146.38999938964844,96.20999908447266,35.439998626708984,280.010009765625,107.48999786376953,64.11000061035156,31.350000381469727,88.91000366210938,33.41999816894531,41.2400016784668,46.150001525878906,28.260000228881836,67.06999969482422,52.95000076293945,80.4800033569336,34.369998931884766,53.91999816894531,227.4499969482422,97.02999877929688,79.70999908447266,92.80000305175781,76.31999969482422,179.32000732421875,25.68000030517578,96.97000122070312,326.6300048828125,63.880001068115234,26.059999465942383,55.91999816894531,69.2300033569336,170.58999633789062,104.2699966430664,216.9499969482422,77.06999969482422,82.3499984741211,64.37999725341797,83.16000366210938,66.77999877929688,297.6400146484375,47.27000045776367,48.86000061035156,,15.739999771118164,44.279998779296875,39.58000183105469,34.41999816894531,87.25,175.75999450683594,145.1300048828125,72.22000122070312,84.80999755859375,27.610000610351562,47.40999984741211,42.650001525878906,69.54000091552734,73.27999877929688,47.09000015258789,159.67999267578125,11.510000228881836,46.04999923706055,80.79000091552734,54.56999969482422,156.25,58.33000183105469,68.66999816894531,44.15999984741211,131.0500030517578,28.510000228881836,120.69000244140625,37.0,180.2899932861328,64.75,70.29000091552734,23.170000076293945,40.83000183105469,68.70999908447266,122.94000244140625,73.31999969482422,45.029998779296875,39.0,88.83999633789062,26.94499969482422,35.18000030517578,109.95999908447266,138.41000366210938,62.939998626708984,17.31999969482422,91.4800033569336,200.32000732421875,56.380001068115234,91.7300033569336,45.130001068115234,59.1150016784668,252.14999389648438,101.83000183105469,84.44000244140625,28.3700008392334,29.68000030517578,39.650001525878906,114.55000305175781,65.81999969482422,122.16000366210938,399.5799865722656,31.969999313354492,50.29999923706055,210.75,69.44000244140625,61.29999923706055,182.3000030517578,96.23999786376953,61.400001525878906,101.5,39.11000061035156,97.91999816894531,50.83000183105469,72.30000305175781,281.19000244140625,62.47999954223633,41.93000030517578,32.43000030517578,94.4000015258789,271.6499938964844,173.66000366210938,150.36000061035156,35.27000045776367,65.77999877929688,,154.35000610351562,61.310001373291016,30.860000610351562,135.5399932861328,30.0,60.45000076293945,75.8499984741211,64.26000213623047,99.68000030517578,25.670000076293945,19.729999542236328,81.33000183105469,126.33999633789062,31.809999465942383,123.33000183105469,76.3499984741211,114.62000274658203,87.22000122070312,40.13999938964844,22.190000534057617,88.98999786376953,164.42999267578125,14.0600004196167,77.29000091552734,58.810001373291016,43.06999969482422,7.360000133514404,117.30000305175781,14.699999809265137
2019-01-10,110.05000305175781,68.1500015258789,59.34000015258789,54.06999969482422,75.12000274658203,67.41000366210938,69.34086608886719,30.56999969482422,40.470001220703125,147.0399932861328,13.619999885559082,51.95000076293945,165.60000610351562,159.5800018310547,61.459999084472656,42.560001373291016,70.19000244140625,47.06999969482422,399.54998779296875,153.35000610351562,12.369999885559082,122.51000213623047,119.22000122070312,41.65999984741211,103.72000122070312,117.55999755859375,47.59000015258789,85.9000015258789,244.8699951171875,69.9000015258789,84.83999633789062,56.869998931884766,153.94000244140625,153.8000030517578,130.89999389648438,72.4800033569336,60.75,116.5199966430664,249.52000427246094,129.7100067138672,136.7100067138672,12.180000305175781,48.9900016784668,22.68000030517578,149.0399932861328,97.05999755859375,35.90999984741211,284.489990234375,108.1500015258789,65.02999877929688,31.56999969482422,91.01000213623047,32.040000915527344,41.650001525878906,45.86000061035156,28.639999389648438,67.26000213623047,53.31999969482422,81.81999969482422,34.81999969482422,55.15999984741211,229.4499969482422,95.9800033569336,79.81999969482422,91.55000305175781,76.0,179.52999877929688,25.600000381469727,97.0999984741211,331.19000244140625,64.19000244140625,25.25,56.4900016784668,69.87999725341797,170.1199951171875,103.5999984741211,217.9600067138672,78.12000274658203,82.19999694824219,65.80999755859375,83.54000091552734,66.51000213623047,292.6700134277344,47.09000015258789,49.81999969482422,,15.800000190734863,44.63999938964844,39.11000061035156,34.709999084472656,86.05000305175781,177.99000549316406,147.6300048828125,71.9000015258789,85.2699966430664,28.0,47.310001373291016,43.25,70.2300033569336,73.69000244140625,47.650001525878906,161.86000061035156,11.510000228881836,46.38999938964844,82.55999755859375,54.90999984741211,157.9600067138672,58.189998626708984,68.7300033569336,45.20000076293945,132.02999877929688,28.8700008392334,121.79000091552734,36.11000061035156,181.5500030517578,66.05000305175781,68.29000091552734,23.350000381469727,41.630001068115234,70.45999908447266,122.33000183105469,74.37999725341797,45.04999923706055,40.290000915527344,90.37000274658203,27.239999771118164,34.72999954223633,110.93000030517578,138.6699981689453,63.93000030517578,17.40999984741211,92.5,202.63999938964844,56.439998626708984,93.62000274658203,45.599998474121094,59.209999084472656,257.6600036621094,105.08000183105469,84.7300033569336,28.760000228881836,30.350000381469727,40.040000915527344,115.38999938964844,67.02999877929688,123.36000061035156,408.05999755859375,31.8799991607666,50.599998474121094,212.47000122070312,69.08000183105469,61.970001220703125,186.02999877929688,97.72000122070312,62.11000061035156,102.6500015258789,40.0099983215332,98.91000366210938,51.349998474121094,73.11000061035156,277.0299987792969,63.2599983215332,42.34000015258789,32.2400016784668,95.2699966430664,275.17999267578125,177.14999389648438,154.66000366210938,36.09000015258789,66.19000244140625,,155.11000061035156,62.380001068115234,30.959999084472656,136.57000732421875,30.8700008392334,61.86000061035156,76.62000274658203,64.80999755859375,101.4800033569336,25.610000610351562,20.549999237060547,81.94000244140625,126.12999725341797,32.41999816894531,124.04000091552734,77.4800033569336,114.19999694824219,90.87000274658203,40.599998474121094,22.25,90.76000213623047,165.07000732421875,14.130000114440918,77.41999816894531,59.560001373291016,43.369998931884766,7.190000057220459,119.56999969482422,14.710000038146973
2019-01-11,109.41999816894531,69.5,59.31999969482422,53.880001068115234,74.6500015258789,67.29000091552734,67.28813934326172,30.40999984741211,40.45000076293945,147.5500030517578,13.699999809265137,51.27000045776367,163.72999572753906,159.1699981689453,61.650001525878906,42.88999938964844,70.22000122070312,47.34000015258789,395.92999267578125,153.99000549316406,12.479999542236328,123.08999633789062,119.1500015258789,41.7400016784668,104.27999877929688,116.0,47.59000015258789,86.05999755859375,247.6699981689453,70.37999725341797,84.83999633789062,56.5099983215332,154.8300018310547,152.2899932861328,131.9199981689453,71.70999908447266,60.470001220703125,116.05999755859375,250.57000732421875,129.75,136.74000549316406,12.239999771118164,48.52000045776367,22.600000381469727,148.97000122070312,96.16000366210938,36.0099983215332,284.5,108.16000366210938,65.13999938964844,31.639999389648438,90.69999694824219,31.799999237060547,41.7400016784668,45.61000061035156,28.149999618530273,67.23999786376953,53.52000045776367,81.5,34.880001068115234,56.06999969482422,228.8699951171875,97.30000305175781,80.08000183105469,91.38999938964844,76.55999755859375,177.99000549316406,25.780000686645508,97.4800033569336,333.2099914550781,63.72999954223633,25.239999771118164,56.59000015258789,69.51000213623047,170.99000549316406,102.80000305175781,218.10000610351562,78.45999908447266,82.06999969482422,65.55000305175781,83.44999694824219,67.01000213623047,294.5400085449219,47.459999084472656,49.72999954223633,,15.869999885559082,44.599998474121094,39.599998474121094,34.83000183105469,84.48999786376953,178.58999633789062,147.25,69.8499984741211,84.61000061035156,28.0,47.439998626708984,42.540000915527344,69.43000030517578,72.69999694824219,48.119998931884766,161.39999389648438,11.600000381469727,46.58000183105469,83.51000213623047,55.41999816894531,157.97999572753906,58.380001068115234,68.4000015258789,45.41999816894531,132.7100067138672,29.010000228881836,121.45999908447266,36.349998474121094,182.3699951171875,65.98999786376953,69.61000061035156,23.100000381469727,41.54999923706055,70.63999938964844,120.44999694824219,74.0999984741211,44.400001525878906,40.95000076293945,90.91999816894531,27.420000076293945,37.18000030517578,111.12999725341797,138.05999755859375,64.29000091552734,17.520000457763672,92.58000183105469,198.25,56.689998626708984,94.61000061035156,45.61000061035156,59.9900016784668,256.04998779296875,106.63999938964844,85.02999877929688,29.110000610351562,30.049999237060547,40.709999084472656,114.80999755859375,67.1500015258789,122.80999755859375,408.6300048828125,32.18000030517578,50.65999984741211,215.27000427246094,69.33000183105469,61.68000030517578,188.16000366210938,98.58999633789062,62.02000045776367,101.86000061035156,40.150001525878906,97.91000366210938,46.540000915527344,73.48999786376953,284.1099853515625,63.040000915527344,42.22999954223633,32.630001068115234,94.95999908447266,273.1600036621094,175.97999572753906,153.2100067138672,36.56999969482422,66.22000122070312,,152.8000030517578,62.36000061035156,31.100000381469727,136.55999755859375,30.700000762939453,63.689998626708984,77.12999725341797,64.91999816894531,102.19000244140625,25.68000030517578,20.399999618530273,80.58999633789062,126.7300033569336,32.29999923706055,125.6500015258789,77.86000061035156,114.22000122070312,91.12000274658203,40.66999816894531,22.280000686645508,90.63999938964844,159.4199981689453,14.239999771118164,78.47000122070312,59.790000915527344,43.15999984741211,7.239999771118164,120.33999633789062,14.779999732971191
2019-01-14,108.12999725341797,69.62000274658203,58.150001525878906,54.040000915527344,73.54000091552734,67.2300033569336,67.44821166992188,30.209999084472656,40.380001068115234,146.0500030517578,13.8100004196167,50.810001373291016,162.85000610351562,160.50999450683594,61.22999954223633,42.529998779296875,70.37999725341797,47.150001525878906,397.79998779296875,153.57000732421875,12.449999809265137,123.93000030517578,118.12999725341797,42.47999954223633,102.69000244140625,115.12000274658203,47.279998779296875,84.5,248.05999755859375,69.75,84.75,57.279998779296875,153.7100067138672,150.0,131.14999389648438,70.6500015258789,60.09000015258789,113.0999984741211,250.8699951171875,128.27999877929688,134.75,12.289999961853027,48.7599983215332,22.59000015258789,149.22000122070312,95.2699966430664,34.66999816894531,281.2099914550781,107.31999969482422,64.0199966430664,31.3799991607666,88.58000183105469,31.709999084472656,41.31999969482422,46.150001525878906,27.610000610351562,67.30999755859375,53.09000015258789,81.0199966430664,31.780000686645508,55.959999084472656,226.3800048828125,96.91000366210938,80.0199966430664,92.19999694824219,76.86000061035156,179.2100067138672,25.56999969482422,98.01000213623047,330.4200134277344,63.369998931884766,25.329999923706055,56.2599983215332,69.62999725341797,171.5500030517578,102.05000305175781,215.5800018310547,77.66000366210938,81.7699966430664,64.95999908447266,83.80000305175781,68.45999908447266,291.55999755859375,46.779998779296875,49.36000061035156,,15.880000114440918,44.369998931884766,38.41999816894531,34.77000045776367,84.33999633789062,178.17999267578125,147.61000061035156,67.97000122070312,83.66000366210938,27.399999618530273,47.790000915527344,42.709999084472656,70.37000274658203,72.66000366210938,48.470001220703125,161.39999389648438,11.550000190734863,46.650001525878906,81.72000122070312,55.33000183105469,156.1699981689453,58.29999923706055,68.29000091552734,45.220001220703125,130.88999938964844,28.969999313354492,120.38999938964844,36.13999938964844,181.22000122070312,65.58000183105469,68.83999633789062,23.239999771118164,41.459999084472656,72.02999877929688,121.54000091552734,73.87999725341797,43.189998626708984,40.20000076293945,90.55999755859375,27.03499984741211,37.65999984741211,107.58000183105469,137.10000610351562,63.83000183105469,17.5,93.5999984741211,193.94000244140625,58.93000030517578,93.97000122070312,46.25,60.95000076293945,259.9599914550781,106.51000213623047,83.4800033569336,29.25,29.850000381469727,40.06999969482422,113.58000183105469,66.69000244140625,121.48999786376953,400.7300109863281,32.369998931884766,49.91999816894531,215.72999572753906,68.2699966430664,61.58000183105469,183.91000366210938,96.33000183105469,61.689998626708984,101.95999908447266,40.119998931884766,99.13999938964844,47.290000915527344,72.54000091552734,274.8999938964844,62.95000076293945,42.47999954223633,33.060001373291016,95.05999755859375,271.32000732421875,177.02000427246094,153.88999938964844,36.47999954223633,65.58000183105469,,149.49000549316406,62.349998474121094,31.56999969482422,134.89999389648438,30.3700008392334,61.18000030517578,74.23999786376953,64.62999725341797,102.62999725341797,25.399999618530273,20.299999237060547,79.23999786376953,126.44000244140625,32.09000015258789,123.72000122070312,78.05999755859375,115.20999908447266,89.16999816894531,40.119998931884766,22.309999465942383,90.43000030517578,158.72000122070312,14.15999984741211,78.94999694824219,59.83000183105469,42.849998474121094,7.190000057220459,119.19000244140625,14.960000038146973
2019-01-15,110.18000030517578,70.5,55.04999923706055,54.45000076293945,78.76000213623047,68.13999938964844,67.85310363769531,30.670000076293945,40.27000045776367,149.19000244140625,13.779999732971191,51.81999969482422,163.17999267578125,160.13999938964844,62.459999084472656,42.939998626708984,69.87999725341797,47.56999969482422,381.44000244140625,154.6300048828125,12.510000228881836,123.8499984741211,119.06999969482422,42.880001068115234,104.16999816894531,115.7699966430664,47.630001068115234,84.80999755859375,256.8699951171875,70.5999984741211,86.02999877929688,56.66999816894531,157.05999755859375,153.07000732421875,132.63999938964844,71.79000091552734,59.959999084472656,112.16999816894531,256.489990234375,129.36000061035156,135.8800048828125,12.380000114440918,49.61000061035156,22.709999084472656,153.22999572753906,96.68000030517578,33.9900016784668,293.2200012207031,108.98999786376953,64.43000030517578,31.399999618530273,89.48999786376953,32.099998474121094,41.720001220703125,46.34000015258789,28.25,68.51000213623047,52.86000061035156,81.11000061035156,31.020000457763672,56.77000045776367,230.77999877929688,94.91000366210938,80.5,92.72000122070312,77.26000213623047,176.39999389648438,25.34000015258789,97.08000183105469,337.5400085449219,64.08000183105469,24.90999984741211,55.880001068115234,69.98999786376953,170.6300048828125,105.01000213623047,222.85000610351562,77.31999969482422,81.75,66.04000091552734,84.2300033569336,68.66000366210938,294.0,47.31999969482422,50.220001220703125,,16.15999984741211,44.0099983215332,38.47999954223633,34.84000015258789,94.33000183105469,179.7899932861328,149.67999267578125,68.87999725341797,85.13999938964844,27.34000015258789,47.970001220703125,43.4900016784668,69.81999969482422,72.91000366210938,49.29999923706055,163.0500030517578,11.569999694824219,46.650001525878906,82.36000061035156,55.38999938964844,154.39999389648438,58.61000061035156,67.0,45.880001068115234,128.99000549316406,29.469999313354492,121.7300033569336,35.900001525878906,181.02000427246094,66.41000366210938,68.20999908447266,23.020000457763672,41.439998626708984,73.31999969482422,122.43000030517578,75.04000091552734,43.29999923706055,40.380001068115234,91.20999908447266,27.295000076293945,37.54999923706055,111.7300033569336,137.33999633789062,64.7699966430664,17.700000762939453,94.5,195.0500030517578,61.380001068115234,93.73999786376953,46.90999984741211,62.560001373291016,258.94000244140625,107.29000091552734,85.02999877929688,29.309999465942383,30.100000381469727,39.810001373291016,115.66999816894531,67.37999725341797,122.87999725341797,405.0199890136719,31.709999084472656,49.36000061035156,218.7100067138672,70.47000122070312,62.029998779296875,186.67999267578125,97.62999725341797,61.52000045776367,101.0,40.83000183105469,97.55999755859375,46.84000015258789,71.16000366210938,278.489990234375,62.720001220703125,42.939998626708984,33.099998474121094,94.23999786376953,270.29998779296875,181.6199951171875,152.47999572753906,36.66999816894531,65.5199966430664,,162.08999633789062,63.209999084472656,31.75,134.64999389648438,30.350000381469727,61.560001373291016,75.01000213623047,65.98999786376953,103.16999816894531,25.059999465942383,20.790000915527344,80.48999786376953,128.8000030517578,31.90999984741211,124.68000030517578,78.0999984741211,116.7300033569336,89.73999786376953,39.650001525878906,22.270000457763672,91.41999816894531,160.27999877929688,14.4399995803833,78.7699966430664,60.599998474121094,43.47999954223633,7.289999961853027,120.93000030517578,15.109999656677246
2019-01-16,109.27999877929688,70.75,54.18000030517578,53.63999938964844,76.55999755859375,68.4800033569336,67.72128295898438,30.290000915527344,40.16999816894531,148.5399932861328,13.8100004196167,51.279998779296875,161.86000061035156,159.3800048828125,62.099998474121094,42.970001220703125,70.0999984741211,46.91999816894531,386.94000244140625,156.9199981689453,12.539999961853027,123.18000030517578,119.83000183105469,44.4900016784668,105.0,114.55000305175781,48.41999816894531,83.20999908447266,261.4599914550781,70.02999877929688,86.98999786376953,56.33000183105469,160.25,154.94000244140625,132.02999877929688,72.0,59.68000030517578,112.20999908447266,251.6999969482422,128.0399932861328,135.3000030517578,12.380000114440918,49.779998779296875,23.030000686645508,155.39999389648438,96.05000305175781,33.58000183105469,288.80999755859375,108.33999633789062,65.16999816894531,31.489999771118164,89.91999816894531,32.84000015258789,41.25,47.540000915527344,28.549999237060547,69.05000305175781,53.29999923706055,81.3499984741211,31.559999465942383,57.27000045776367,231.27000427246094,93.95999908447266,81.26000213623047,92.97000122070312,77.30000305175781,174.69000244140625,25.030000686645508,96.94999694824219,332.0299987792969,63.77000045776367,24.90999984741211,56.869998931884766,70.0199966430664,171.36000061035156,105.37999725341797,221.24000549316406,78.48999786376953,81.01000213623047,66.66999816894531,84.54000091552734,70.47000122070312,293.80999755859375,47.529998779296875,50.540000915527344,,16.34000015258789,44.099998474121094,37.849998474121094,35.040000915527344,95.5999984741211,182.16000366210938,150.99000549316406,68.97000122070312,85.2699966430664,27.479999542236328,49.11000061035156,42.84000015258789,70.3499984741211,73.72000122070312,48.439998626708984,163.77999877929688,11.890000343322754,46.68000030517578,83.08000183105469,55.279998779296875,155.82000732421875,58.790000915527344,67.02999877929688,46.2400016784668,129.6300048828125,29.690000534057617,121.62000274658203,35.29999923706055,179.35000610351562,66.66000366210938,67.8499984741211,23.149999618530273,41.54999923706055,73.91999816894531,123.62999725341797,72.56999969482422,42.59000015258789,40.31999969482422,90.48999786376953,27.059999465942383,37.66999816894531,111.69999694824219,137.33999633789062,64.6500015258789,17.75,94.41000366210938,206.7899932861328,62.189998626708984,93.33000183105469,46.84000015258789,63.22999954223633,255.74000549316406,106.94000244140625,84.2699966430664,29.360000610351562,30.06999969482422,40.150001525878906,116.88999938964844,67.37000274658203,124.73999786376953,404.5400085449219,31.670000076293945,49.31999969482422,224.77000427246094,69.81999969482422,62.599998474121094,186.14999389648438,97.16999816894531,61.380001068115234,102.54000091552734,41.279998779296875,96.98999786376953,47.130001068115234,71.94999694824219,282.010009765625,62.25,42.66999816894531,33.95000076293945,93.77999877929688,272.6000061035156,185.0,151.97000122070312,36.77000045776367,65.13999938964844,,156.63999938964844,63.540000915527344,31.209999084472656,135.83999633789062,30.360000610351562,61.40999984741211,75.08000183105469,65.79000091552734,103.2300033569336,25.15999984741211,20.549999237060547,80.52999877929688,130.0500030517578,31.920000076293945,125.3499984741211,77.7300033569336,116.0,89.25,39.720001220703125,22.209999084472656,91.79000091552734,162.44000244140625,14.319999694824219,79.0,61.16999816894531,43.29999923706055,7.230000019073486,121.9000015258789,15.399999618530273
2019-01-17,108.47000122070312,72.5199966430664,53.5099983215332,53.400001525878906,78.66999816894531,68.75,68.98304748535156,30.3799991607666,40.36000061035156,149.82000732421875,14.319999694824219,51.84000015258789,156.4199981689453,162.83999633789062,61.91999816894531,43.099998474121094,70.97000122070312,47.060001373291016,394.5299987792969,156.9600067138672,12.600000381469727,125.5199966430664,120.41999816894531,42.529998779296875,106.22000122070312,113.75,48.16999816894531,84.25,259.7699890136719,70.81999969482422,87.5999984741211,57.81999969482422,160.72999572753906,155.86000061035156,135.25999450683594,71.98999786376953,60.52000045776367,112.2699966430664,255.3300018310547,129.08999633789062,136.5,12.4399995803833,50.59000015258789,23.270000457763672,157.86000061035156,97.05999755859375,33.880001068115234,299.2799987792969,109.22000122070312,65.37999725341797,31.959999084472656,89.30999755859375,33.58000183105469,41.369998931884766,48.279998779296875,29.34000015258789,69.22000122070312,55.08000183105469,81.83000183105469,31.6200008392334,56.720001220703125,236.11000061035156,92.05000305175781,81.69999694824219,93.52999877929688,76.08000183105469,177.22999572753906,25.239999771118164,99.91999816894531,338.3399963378906,64.27999877929688,25.59000015258789,57.7400016784668,71.37999725341797,173.27000427246094,106.12000274658203,221.02999877929688,79.7300033569336,81.76000213623047,67.05999755859375,84.56999969482422,71.05000305175781,294.4100036621094,48.0,50.97999954223633,,16.559999465942383,44.88999938964844,37.61000061035156,35.43000030517578,95.68000030517578,183.33999633789062,152.5,68.94000244140625,85.63999938964844,27.739999771118164,49.75,43.349998474121094,71.13999938964844,73.91000366210938,49.5,164.3800048828125,12.130000114440918,46.79999923706055,84.33000183105469,56.08000183105469,159.52000427246094,60.18000030517578,67.94000244140625,46.790000915527344,132.64999389648438,29.809999465942383,122.19000244140625,36.119998931884766,181.11000061035156,67.27999877929688,69.37000274658203,23.649999618530273,42.130001068115234,73.25,125.22000122070312,74.5,43.790000915527344,40.56999969482422,92.23999786376953,28.670000076293945,38.2599983215332,114.62000274658203,137.27999877929688,64.80999755859375,17.93000030517578,95.44999694824219,212.6699981689453,62.470001220703125,94.81999969482422,47.08000183105469,62.6349983215332,264.0799865722656,106.62000274658203,85.0999984741211,29.790000915527344,30.270000457763672,40.25,117.41000366210938,67.38999938964844,124.08999633789062,417.3800048828125,32.2599983215332,49.7400016784668,225.3699951171875,70.5199966430664,63.25,190.52000427246094,97.54000091552734,62.0,107.36000061035156,41.529998779296875,99.58000183105469,47.380001068115234,74.2300033569336,283.8999938964844,62.2400016784668,43.040000915527344,33.900001525878906,93.66999816894531,275.4100036621094,185.32000732421875,154.63999938964844,37.15999984741211,65.83000183105469,,159.11000061035156,64.05000305175781,31.690000534057617,137.83999633789062,30.899999618530273,62.25,76.1500015258789,66.55000305175781,104.18000030517578,25.270000457763672,20.729999542236328,80.76000213623047,129.5,32.540000915527344,126.05000305175781,79.05999755859375,116.70999908447266,90.2300033569336,38.72999954223633,22.34000015258789,92.55999755859375,166.27999877929688,14.270000457763672,80.48999786376953,61.45000076293945,43.40999984741211,7.429999828338623,122.75,15.609999656677246
2019-01-18,109.05000305175781,73.79000091552734,54.880001068115234,54.060001373291016,78.41999816894531,69.9000015258789,77.532958984375,31.0,41.16999816894531,152.50999450683594,14.84000015258789,52.810001373291016,158.63999938964844,165.41000366210938,62.97999954223633,44.119998931884766,71.87000274658203,47.61000061035156,398.5299987792969,158.66000366210938,12.680000305175781,127.05999755859375,121.5199966430664,43.689998626708984,105.33999633789062,115.5999984741211,49.04999923706055,84.58999633789062,265.5,71.93000030517578,87.30000305175781,58.709999084472656,165.97000122070312,156.82000732421875,137.6999969482422,72.43000030517578,62.5099983215332,113.52999877929688,260.82000732421875,130.69000244140625,141.72999572753906,12.520000457763672,51.56999969482422,24.079999923706055,159.39999389648438,97.93000030517578,35.7599983215332,305.3900146484375,110.06999969482422,66.38999938964844,32.20000076293945,92.5199966430664,33.970001220703125,44.72999954223633,49.290000915527344,29.799999237060547,69.58000183105469,55.970001220703125,82.48999786376953,31.770000457763672,57.369998931884766,242.0800018310547,94.9800033569336,81.9800033569336,95.08999633789062,79.86000061035156,180.47000122070312,25.6299991607666,106.11000061035156,337.4200134277344,64.69999694824219,26.010000228881836,58.72999954223633,73.02999877929688,176.91000366210938,107.70999908447266,232.0800018310547,81.25,83.51000213623047,67.23999786376953,85.69999694824219,71.30000305175781,291.3999938964844,49.15999984741211,50.880001068115234,,16.549999237060547,45.38999938964844,37.18000030517578,35.63999938964844,96.0199966430664,184.08999633789062,154.41000366210938,68.7699966430664,85.5999984741211,28.559999465942383,50.220001220703125,43.84000015258789,72.93000030517578,74.41000366210938,50.2599983215332,164.6699981689453,12.5600004196167,47.529998779296875,86.4000015258789,56.880001068115234,162.49000549316406,60.869998931884766,69.29000091552734,46.9900016784668,136.8800048828125,29.8799991607666,123.81999969482422,37.08000183105469,182.57000732421875,67.66999816894531,70.68000030517578,24.1200008392334,43.099998474121094,74.73999786376953,124.87000274658203,77.81999969482422,44.18000030517578,41.41999816894531,93.5199966430664,29.674999237060547,38.61000061035156,117.05000305175781,138.5,64.6500015258789,18.260000228881836,96.37999725341797,220.08999633789062,63.119998931884766,96.56999969482422,47.529998779296875,63.310001373291016,267.75,107.25,87.04000091552734,30.450000762939453,30.6299991607666,40.83000183105469,117.83999633789062,68.36000061035156,127.19000244140625,418.8399963378906,32.72999954223633,50.060001373291016,230.99000549316406,71.41999816894531,64.41999816894531,194.6999969482422,99.41999816894531,63.68000030517578,105.43000030517578,41.68000030517578,101.5999984741211,48.650001525878906,75.6500015258789,291.5,62.68000030517578,43.36000061035156,35.43000030517578,96.11000061035156,282.0400085449219,188.63999938964844,158.33999633789062,37.7400016784668,67.02999877929688,,168.41000366210938,64.69999694824219,32.09000015258789,140.77000427246094,32.25,63.279998779296875,77.63999938964844,67.81999969482422,104.79000091552734,26.139999389648438,21.09000015258789,81.69000244140625,130.8699951171875,33.5,127.83999633789062,80.69000244140625,118.4800033569336,91.9000015258789,40.22999954223633,22.25,92.61000061035156,167.61000061035156,14.680000305175781,82.58999633789062,61.689998626708984,44.2599983215332,7.53000020980835,124.26000213623047,15.699999809265137
2019-01-22,107.26000213623047,72.80999755859375,54.209999084472656,52.97999954223633,77.33000183105469,69.4000015258789,76.99623107910156,32.900001525878906,40.15999984741211,148.9499969482422,14.579999923706055,51.869998931884766,157.3000030517578,163.7100067138672,61.470001220703125,44.189998626708984,70.44000244140625,47.720001220703125,393.9700012207031,158.72999572753906,12.5,126.22000122070312,121.20999908447266,42.40999984741211,103.91999816894531,114.47000122070312,48.650001525878906,84.08999633789062,265.69000244140625,71.31999969482422,87.0,57.77000045776367,162.25999450683594,153.3000030517578,135.6999969482422,71.58999633789062,61.75,112.9000015258789,258.2900085449219,128.8000030517578,139.05999755859375,12.350000381469727,50.540000915527344,23.020000457763672,155.47999572753906,96.79000091552734,33.869998931884766,300.6099853515625,109.91000366210938,66.06999969482422,30.969999313354492,91.30999755859375,32.7400016784668,43.959999084472656,49.13999938964844,29.510000228881836,67.80000305175781,54.349998474121094,81.16999816894531,32.099998474121094,56.849998474121094,239.19000244140625,91.55999755859375,81.06999969482422,97.26000213623047,79.70999908447266,180.24000549316406,25.079999923706055,103.80000305175781,338.9599914550781,65.38999938964844,24.940000534057617,57.70000076293945,71.66999816894531,175.89999389648438,105.68000030517578,222.99000549316406,79.4800033569336,82.18000030517578,67.58000183105469,85.86000061035156,70.58999633789062,284.9700012207031,48.7400016784668,50.959999084472656,,16.450000762939453,44.72999954223633,36.41999816894531,35.56999969482422,95.72000122070312,184.02999877929688,153.6999969482422,68.58999633789062,85.61000061035156,27.8700008392334,50.13999938964844,42.869998931884766,71.72000122070312,73.37999725341797,50.720001220703125,164.67999267578125,12.380000114440918,46.939998626708984,84.56999969482422,56.119998931884766,158.35000610351562,59.7599983215332,68.38999938964844,47.06999969482422,115.69000244140625,29.899999618530273,122.5199966430664,36.349998474121094,184.57000732421875,67.48999786376953,70.27999877929688,23.770000457763672,41.86000061035156,73.47000122070312,118.30999755859375,78.19000244140625,41.86000061035156,41.2599983215332,90.44999694824219,29.549999237060547,38.150001525878906,114.29000091552734,138.0500030517578,64.7699966430664,18.09000015258789,95.01000213623047,216.16000366210938,61.849998474121094,96.51000213623047,47.279998779296875,62.775001525878906,264.7300109863281,105.0999984741211,86.18000030517578,29.540000915527344,29.420000076293945,40.7599983215332,117.47000122070312,66.23999786376953,124.86000061035156,404.75,32.54999923706055,49.63999938964844,225.74000549316406,71.48999786376953,63.290000915527344,193.8800048828125,96.62000274658203,63.0099983215332,104.3499984741211,41.869998931884766,102.68000030517578,47.060001373291016,71.94999694824219,288.8500061035156,62.65999984741211,43.130001068115234,35.18000030517578,93.0,274.70001220703125,187.2899932861328,155.02000427246094,38.09000015258789,65.12000274658203,,168.2899932861328,64.77999877929688,31.520000457763672,137.60000610351562,31.260000228881836,61.939998626708984,75.18000030517578,66.80000305175781,104.98999786376953,24.809999465942383,20.489999771118164,80.33000183105469,129.52999877929688,33.40999984741211,125.4800033569336,79.29000091552734,115.6500015258789,92.27999877929688,38.47999954223633,21.649999618530273,92.7699966430664,164.1300048828125,14.449999809265137,82.01000213623047,61.54999923706055,43.560001373291016,7.25,124.37999725341797,15.59000015258789
2019-01-23,108.08999633789062,74.0,54.93000030517578,54.08000183105469,75.19999694824219,69.83999633789062,78.05084991455078,32.61000061035156,40.2400016784668,149.75,14.800000190734863,51.04999923706055,159.63999938964844,165.1999969482422,61.119998931884766,44.400001525878906,70.1500015258789,48.27000045776367,393.3900146484375,158.17999267578125,12.359999656677246,119.83000183105469,120.77999877929688,42.150001525878906,104.77999877929688,114.45999908447266,48.869998931884766,83.69000244140625,267.0199890136719,71.6500015258789,87.16000366210938,57.310001373291016,162.77999877929688,153.9199981689453,136.0,71.70999908447266,61.70000076293945,113.58999633789062,257.5199890136719,128.8000030517578,137.49000549316406,12.170000076293945,51.02000045776367,22.579999923706055,154.80999755859375,96.86000061035156,34.2400016784668,297.1600036621094,110.7300033569336,65.62999725341797,31.15999984741211,89.12999725341797,31.649999618530273,43.310001373291016,49.40999984741211,29.110000610351562,67.62000274658203,54.209999084472656,83.44999694824219,32.20000076293945,56.959999084472656,239.13999938964844,91.83000183105469,81.66999816894531,98.20999908447266,79.36000061035156,174.8699951171875,25.3700008392334,101.88999938964844,337.2200012207031,66.43000030517578,25.3799991607666,57.279998779296875,71.13999938964844,173.67999267578125,106.70999908447266,222.2899932861328,76.0,82.43000030517578,68.0999984741211,85.88999938964844,70.81999969482422,284.5299987792969,48.63999938964844,51.439998626708984,,16.280000686645508,44.70000076293945,37.29999923706055,35.70000076293945,95.48999786376953,184.94000244140625,154.05999755859375,69.43000030517578,86.12999725341797,27.809999465942383,50.529998779296875,42.720001220703125,70.25,73.69999694824219,50.779998779296875,165.7899932861328,12.3100004196167,47.2599983215332,84.9000015258789,56.150001525878906,156.80999755859375,59.400001525878906,68.45999908447266,47.38999938964844,118.55000305175781,29.889999389648438,132.88999938964844,36.5099983215332,186.08999633789062,68.30000305175781,70.31999969482422,22.979999542236328,41.40999984741211,72.37999725341797,115.2300033569336,80.58999633789062,42.119998931884766,41.029998779296875,89.55000305175781,29.450000762939453,37.66999816894531,117.0,137.00999450683594,64.41999816894531,18.06999969482422,95.58000183105469,217.22000122070312,62.130001068115234,95.4800033569336,47.060001373291016,62.77000045776367,270.2300109863281,104.02999877929688,86.30999755859375,28.739999771118164,29.309999465942383,41.02000045776367,117.22000122070312,65.51000213623047,126.12999725341797,401.2099914550781,32.040000915527344,49.27000045776367,225.33999633789062,69.91000366210938,64.98999786376953,189.88999938964844,95.48999786376953,62.400001525878906,102.05000305175781,41.959999084472656,100.91999816894531,46.02000045776367,70.25,288.20001220703125,62.88999938964844,43.5099983215332,34.95000076293945,93.45999908447266,276.260009765625,187.60000610351562,154.3300018310547,37.16999816894531,64.56999969482422,,167.6699981689453,65.06999969482422,30.969999313354492,135.91000366210938,31.049999237060547,61.90999984741211,74.36000061035156,67.05999755859375,104.19000244140625,25.489999771118164,20.309999465942383,81.38999938964844,130.2899932861328,33.22999954223633,126.72000122070312,78.81999969482422,116.6500015258789,91.81999969482422,38.7599983215332,21.899999618530273,94.23999786376953,164.3300018310547,14.4399995803833,79.77999877929688,61.459999084472656,43.709999084472656,7.329999923706055,123.80000305175781,15.369999885559082
2019-01-24,108.23999786376953,71.55000305175781,55.13999938964844,54.459999084472656,77.01000213623047,69.62000274658203,78.47457885742188,32.650001525878906,40.459999084472656,146.8699951171875,14.710000038146973,51.0,156.08999633789062,166.32000732421875,61.970001220703125,44.58000183105469,70.16000366210938,47.689998626708984,390.260009765625,157.7899932861328,12.5600004196167,122.9000015258789,121.06999969482422,42.04999923706055,105.23999786376953,114.79000091552734,48.52000045776367,83.66000366210938,266.1300048828125,72.18000030517578,87.2300033569336,57.599998474121094,161.74000549316406,152.6999969482422,136.36000061035156,71.31999969482422,62.18000030517578,113.75,263.54998779296875,127.02999877929688,136.0500030517578,12.4399995803833,54.209999084472656,22.860000610351562,154.1199951171875,95.54000091552734,36.59000015258789,286.2200012207031,109.5,65.7300033569336,31.010000228881836,91.4800033569336,33.65999984741211,43.560001373291016,49.25,30.1200008392334,70.6500015258789,53.849998474121094,85.22000122070312,32.18000030517578,56.38999938964844,240.72000122070312,91.80000305175781,82.51000213623047,96.08999633789062,78.69999694824219,176.0399932861328,25.700000762939453,102.70999908447266,332.8699951171875,64.73999786376953,25.25,56.869998931884766,70.98999786376953,174.10000610351562,106.19999694824219,226.4499969482422,78.76000213623047,83.0,68.75,86.25,71.31999969482422,287.5799865722656,48.68000030517578,51.689998626708984,,16.399999618530273,45.599998474121094,38.29999923706055,35.90999984741211,95.33999633789062,184.9499969482422,153.91000366210938,69.12999725341797,86.69999694824219,27.889999389648438,50.88999938964844,41.58000183105469,71.81999969482422,73.51000213623047,50.86000061035156,165.64999389648438,10.699999809265137,47.41999816894531,85.13999938964844,56.369998931884766,158.07000732421875,60.34000015258789,68.61000061035156,47.5099983215332,118.23999786376953,29.81999969482422,132.52999877929688,36.119998931884766,187.3699951171875,68.45999908447266,70.61000061035156,23.040000915527344,41.709999084472656,73.2699966430664,116.08000183105469,82.79000091552734,41.2599983215332,41.83000183105469,106.05999755859375,29.405000686645508,38.15999984741211,117.91000366210938,137.6999969482422,64.26000213623047,18.18000030517578,96.3499984741211,220.6699981689453,62.709999084472656,95.9800033569336,46.540000915527344,63.3650016784668,269.82000732421875,104.08999633789062,85.5999984741211,29.3799991607666,29.860000610351562,40.59000015258789,117.30000305175781,64.30000305175781,125.11000061035156,407.92999267578125,32.27000045776367,49.5099983215332,228.36000061035156,70.86000061035156,65.23999786376953,186.5800018310547,102.08999633789062,63.040000915527344,102.22000122070312,41.900001525878906,99.69999694824219,47.27000045776367,71.02999877929688,287.989990234375,62.529998779296875,43.029998779296875,35.150001525878906,93.9000015258789,278.70001220703125,188.57000732421875,160.33999633789062,37.529998779296875,64.9800033569336,,169.1999969482422,64.7300033569336,31.84000015258789,136.75999450683594,31.209999084472656,63.380001068115234,78.44000244140625,68.12000274658203,101.7699966430664,25.280000686645508,20.979999542236328,81.16000366210938,131.14999389648438,33.63999938964844,128.82000732421875,79.18000030517578,117.41999816894531,92.31999969482422,40.970001220703125,22.239999771118164,94.63999938964844,156.30999755859375,14.760000228881836,78.94999694824219,61.439998626708984,43.66999816894531,7.0,123.25,15.510000228881836
2019-01-25,109.8499984741211,72.7300033569336,55.43000030517578,54.900001525878906,79.94999694824219,70.38999938964844,78.62523651123047,33.720001220703125,41.060001373291016,149.74000549316406,15.199999809265137,53.099998474121094,158.5,167.61000061035156,63.72999954223633,44.83000183105469,71.06999969482422,47.369998931884766,392.8299865722656,158.69000244140625,12.800000190734863,125.06999969482422,123.4800033569336,42.97999954223633,107.41000366210938,116.18000030517578,49.349998474121094,84.69000244140625,268.04998779296875,73.6500015258789,87.0199966430664,59.34000015258789,163.8300018310547,157.75999450683594,137.39999389648438,71.88999938964844,63.77000045776367,114.19999694824219,267.94000244140625,128.22999572753906,142.0800018310547,12.6899995803833,54.97999954223633,23.299999237060547,156.52999877929688,96.80000305175781,38.959999084472656,291.8299865722656,109.3499984741211,66.19999694824219,31.889999389648438,91.73999786376953,34.97999954223633,45.0,49.369998931884766,30.079999923706055,71.06999969482422,55.060001373291016,86.30000305175781,33.15999984741211,57.09000015258789,243.05999755859375,93.81999969482422,83.2699966430664,96.02999877929688,79.66000366210938,175.6999969482422,25.90999984741211,104.36000061035156,336.7699890136719,67.08999633789062,25.68000030517578,58.099998474121094,72.25,175.36000061035156,107.16999816894531,227.25999450683594,80.1500015258789,84.19000244140625,67.94000244140625,86.1500015258789,72.63999938964844,291.4100036621094,48.869998931884766,50.810001373291016,,16.700000762939453,46.90999984741211,37.29999923706055,36.04999923706055,97.12000274658203,186.64999389648438,154.38999938964844,69.16000366210938,85.8499984741211,28.700000762939453,51.369998931884766,41.459999084472656,73.0,73.5,51.75,167.41000366210938,11.239999771118164,47.790000915527344,86.48999786376953,57.04999923706055,160.99000549316406,60.9900016784668,69.33000183105469,48.040000915527344,120.58000183105469,30.3700008392334,133.97000122070312,37.5,184.0,67.27999877929688,72.38999938964844,23.489999771118164,42.7599983215332,75.69999694824219,118.55000305175781,85.06999969482422,42.54999923706055,42.290000915527344,110.37000274658203,29.764999389648438,38.63999938964844,121.44000244140625,138.6699981689453,65.22000122070312,18.229999542236328,95.23999786376953,227.22000122070312,64.0199966430664,97.19999694824219,46.75,64.5,272.8399963378906,104.16999816894531,85.41000366210938,30.440000534057617,30.360000610351562,41.40999984741211,94.55999755859375,63.59000015258789,125.9800033569336,418.2900085449219,32.709999084472656,50.08000183105469,242.08999633789062,71.1500015258789,65.30000305175781,189.5,104.41000366210938,63.939998626708984,103.5,42.41999816894531,100.83000183105469,47.79999923706055,68.54000091552734,290.7200012207031,62.02000045776367,42.720001220703125,35.439998626708984,94.47000122070312,283.1499938964844,189.30999755859375,160.9499969482422,37.95000076293945,66.52999877929688,,170.63999938964844,66.01000213623047,32.060001373291016,137.25999450683594,32.099998474121094,65.76000213623047,80.62999725341797,70.0199966430664,101.44000244140625,25.68000030517578,21.31999969482422,81.95999908447266,132.4499969482422,34.75,130.9600067138672,79.4800033569336,117.11000061035156,94.26000213623047,43.65999984741211,22.40999984741211,93.2699966430664,153.22000122070312,15.350000381469727,82.19000244140625,62.75,43.720001220703125,7.309999942779541,125.41000366210938,15.649999618530273
2019-01-28,110.52999877929688,74.3499984741211,54.5099983215332,54.95000076293945,80.66000366210938,70.0,78.81356048583984,34.02000045776367,40.540000915527344,147.3300018310547,15.359999656677246,51.72999954223633,158.75,168.64999389648438,63.209999084472656,44.619998931884766,69.11000061035156,47.16999816894531,397.0,158.25,12.779999732971191,124.45999908447266,124.87000274658203,42.650001525878906,105.83999633789062,115.2300033569336,49.13999938964844,83.6500015258789,266.7699890136719,73.2699966430664,86.41999816894531,59.5,162.44000244140625,156.3000030517578,136.5,71.58000183105469,63.11000061035156,114.12000274658203,267.6199951171875,128.99000549316406,140.77000427246094,12.630000114440918,55.52000045776367,22.850000381469727,155.8800048828125,96.91000366210938,38.08000183105469,288.92999267578125,108.81999969482422,67.12999725341797,31.59000015258789,90.47000122070312,36.56999969482422,44.2400016784668,49.27000045776367,30.299999237060547,72.29000091552734,53.630001068115234,85.75,32.90999984741211,56.06999969482422,241.83999633789062,93.1500015258789,82.94000244140625,96.7300033569336,80.12000274658203,179.6199951171875,25.760000228881836,104.44999694824219,330.010009765625,66.9000015258789,25.770000457763672,58.5,71.88999938964844,173.9600067138672,105.08000183105469,215.32000732421875,79.8499984741211,84.27999877929688,67.66000366210938,86.48999786376953,71.52999877929688,290.8599853515625,48.959999084472656,50.79999923706055,,17.020000457763672,47.13999938964844,36.38999938964844,36.2400016784668,97.16999816894531,188.83999633789062,153.6699981689453,68.37000274658203,85.6500015258789,28.459999084472656,51.27000045776367,41.84000015258789,73.02999877929688,72.9800033569336,50.790000915527344,168.0500030517578,10.279999732971191,47.650001525878906,86.73999786376953,57.09000015258789,157.66000366210938,60.779998779296875,68.31999969482422,48.70000076293945,121.20999908447266,30.6299991607666,134.27000427246094,37.880001068115234,183.60000610351562,67.11000061035156,72.12000274658203,22.979999542236328,41.97999954223633,74.70999908447266,115.98999786376953,85.20999908447266,42.970001220703125,41.68000030517578,109.36000061035156,29.69499969482422,38.459999084472656,119.20999908447266,135.99000549316406,65.98999786376953,18.170000076293945,94.44999694824219,221.49000549316406,63.849998474121094,97.83999633789062,46.900001525878906,64.4800033569336,274.29998779296875,105.69999694824219,85.48999786376953,29.950000762939453,30.360000610351562,40.439998626708984,91.55999755859375,63.619998931884766,124.69000244140625,413.95001220703125,32.689998626708984,49.84000015258789,243.63999938964844,69.05000305175781,65.19999694824219,188.08999633789062,102.68000030517578,62.40999984741211,103.69999694824219,42.970001220703125,100.33000183105469,46.7400016784668,67.30000305175781,290.2799987792969,62.27000045776367,43.119998931884766,35.34000015258789,94.44000244140625,279.8699951171875,188.16000366210938,159.89999389648438,38.310001373291016,66.08000183105469,,168.33999633789062,66.70999908447266,32.290000915527344,135.64999389648438,31.229999542236328,65.08999633789062,80.25,68.94999694824219,102.87000274658203,25.81999969482422,21.450000762939453,82.06999969482422,132.3800048828125,35.02000045776367,130.97999572753906,79.23999786376953,117.04000091552734,93.41999816894531,43.2599983215332,22.5,93.0199966430664,154.86000061035156,15.65999984741211,81.02999877929688,63.5,44.16999816894531,7.340000152587891,126.2699966430664,15.680000305175781
2019-01-29,111.12000274658203,74.41000366210938,55.18000030517578,54.5,79.29000091552734,69.7300033569336,79.17137145996094,33.689998626708984,40.97999954223633,145.17999267578125,15.229999542236328,51.869998931884766,157.6300048828125,171.22999572753906,62.59000015258789,44.119998931884766,71.11000061035156,47.400001525878906,403.0,158.8699951171875,12.859999656677246,136.49000549316406,126.38999938964844,42.4900016784668,105.66000366210938,115.72000122070312,49.34000015258789,84.41000366210938,267.3399963378906,73.55999755859375,86.47000122070312,58.779998779296875,160.85000610351562,154.67999267578125,136.6199951171875,71.5,62.939998626708984,114.80000305175781,266.32000732421875,130.3300018310547,140.16000366210938,12.720000267028809,56.369998931884766,23.020000457763672,155.13999938964844,98.31999969482422,37.38999938964844,296.1600036621094,109.0,67.72000122070312,31.780000686645508,87.23999786376953,36.290000915527344,44.0,49.310001373291016,29.75,71.6500015258789,54.099998474121094,86.06999969482422,33.540000915527344,56.61000061035156,242.4499969482422,93.43000030517578,82.36000061035156,95.54000091552734,79.54000091552734,180.27999877929688,25.649999618530273,105.29000091552734,334.4800109863281,67.04000091552734,25.489999771118164,60.130001068115234,73.69000244140625,173.5800018310547,102.94000244140625,206.4199981689453,78.75,85.02999877929688,67.47000122070312,86.77999877929688,70.62999725341797,289.7799987792969,48.7400016784668,50.9900016784668,,17.239999771118164,46.97999954223633,36.68000030517578,36.40999984741211,96.05999755859375,190.72999572753906,152.39999389648438,68.69000244140625,85.62999725341797,28.360000610351562,51.04999923706055,41.75,72.43000030517578,71.91999816894531,51.31999969482422,169.44000244140625,10.449999809265137,47.72999954223633,87.69999694824219,57.5099983215332,162.1199951171875,60.720001220703125,68.69999694824219,49.2400016784668,123.33000183105469,30.760000228881836,134.3300018310547,37.790000915527344,182.1699981689453,67.3499984741211,71.69999694824219,23.15999984741211,42.880001068115234,75.02999877929688,117.26000213623047,83.62999725341797,42.77000045776367,41.45000076293945,109.38999938964844,29.985000610351562,38.470001220703125,119.61000061035156,135.0,66.68000030517578,18.1299991607666,94.94000244140625,222.02999877929688,63.209999084472656,98.75,46.880001068115234,63.94499969482422,280.1300048828125,106.6500015258789,86.1500015258789,29.780000686645508,33.720001220703125,41.08000183105469,92.04000091552734,63.720001220703125,124.88999938964844,417.1499938964844,32.81999969482422,49.58000183105469,240.67999267578125,69.69000244140625,65.80999755859375,186.3800048828125,101.3499984741211,63.43000030517578,104.4800033569336,43.2599983215332,101.30000305175781,45.72999954223633,68.9000015258789,288.82000732421875,62.04999923706055,43.43000030517578,35.04999923706055,96.75,283.25,186.35000610351562,160.1699981689453,38.540000915527344,66.4800033569336,,166.1199951171875,67.54000091552734,33.08000183105469,139.10000610351562,30.850000381469727,63.65999984741211,79.48999786376953,68.66000366210938,103.25,25.479999542236328,21.1299991607666,81.91999816894531,131.13999938964844,34.900001525878906,130.86000061035156,86.16000366210938,117.08000183105469,93.91999816894531,42.77000045776367,22.760000228881836,93.08000183105469,155.38999938964844,15.369999885559082,81.13999938964844,63.90999984741211,44.209999084472656,7.210000038146973,128.0800018310547,15.529999732971191
2019-01-30,113.63999938964844,74.4800033569336,55.83000183105469,54.4900016784668,79.9800033569336,71.13999938964844,79.6704330444336,34.08000183105469,41.189998626708984,149.16000366210938,14.949999809265137,53.93000030517578,159.63999938964844,171.4600067138672,63.380001068115234,45.0099983215332,72.87999725341797,47.86000061035156,405.2300109863281,161.0399932861328,12.829999923706055,132.14999389648438,130.4600067138672,42.790000915527344,108.45999908447266,116.80999755859375,48.7599983215332,85.08999633789062,270.3699951171875,75.44000244140625,87.83000183105469,58.97999954223633,162.77000427246094,165.25,138.3699951171875,71.61000061035156,63.93000030517578,115.27999877929688,270.82000732421875,131.63999938964844,146.0,12.670000076293945,57.4900016784668,23.139999389648438,156.47000122070312,99.43000030517578,38.2400016784668,296.0799865722656,110.81999969482422,68.75,31.90999984741211,89.2300033569336,36.34000015258789,45.0,48.97999954223633,29.700000762939453,73.30000305175781,55.900001525878906,88.20999908447266,33.709999084472656,55.84000015258789,245.47999572753906,95.75,82.80999755859375,93.5199966430664,78.52999877929688,178.52999877929688,25.520000457763672,106.9800033569336,327.8599853515625,68.1500015258789,25.25,60.34000015258789,74.7300033569336,177.47000122070312,106.37999725341797,210.24000549316406,80.2699966430664,85.91000366210938,67.94000244140625,87.33999633789062,71.0199966430664,289.9100036621094,48.900001525878906,51.439998626708984,,17.34000015258789,48.52000045776367,37.59000015258789,36.84000015258789,97.05000305175781,191.22999572753906,154.5,69.44000244140625,86.05000305175781,28.989999771118164,51.040000915527344,41.529998779296875,73.79000091552734,72.88999938964844,51.18000030517578,170.47000122070312,11.270000457763672,48.11000061035156,90.2699966430664,58.189998626708984,165.0,65.19000244140625,69.41999816894531,49.349998474121094,124.4800033569336,30.90999984741211,134.3800048828125,38.380001068115234,181.77000427246094,67.58000183105469,72.33000183105469,23.940000534057617,43.630001068115234,76.37000274658203,121.0199966430664,84.66000366210938,43.060001373291016,41.459999084472656,112.87999725341797,30.094999313354492,39.09000015258789,121.31999969482422,137.60000610351562,67.56999969482422,18.309999465942383,95.58000183105469,232.8300018310547,64.22000122070312,102.19999694824219,46.75,65.02999877929688,280.82000732421875,107.43000030517578,86.91999816894531,29.889999389648438,33.52000045776367,41.56999969482422,93.73999786376953,63.20000076293945,127.55999755859375,419.9100036621094,33.09000015258789,50.13999938964844,240.0,71.68000030517578,66.75,187.0500030517578,102.13999938964844,65.69000244140625,105.05000305175781,43.630001068115234,101.19000244140625,46.310001373291016,68.4000015258789,288.6000061035156,62.900001525878906,43.810001373291016,34.56999969482422,100.55000305175781,287.489990234375,189.00999450683594,160.82000732421875,39.09000015258789,66.97000122070312,,168.74000549316406,68.38999938964844,33.400001525878906,137.10000610351562,31.56999969482422,65.52999877929688,80.48999786376953,69.80000305175781,103.4800033569336,25.600000381469727,20.920000076293945,82.9800033569336,133.05999755859375,35.18000030517578,132.47000122070312,88.81999969482422,119.41999816894531,92.91999816894531,43.7400016784668,22.719999313354492,93.73999786376953,159.0399932861328,15.520000457763672,83.27999877929688,64.95999908447266,44.689998626708984,7.21999979019165,129.36000061035156,15.430000305175781
2019-01-31,114.52999877929688,76.72000122070312,56.970001220703125,54.90999984741211,80.58999633789062,70.80000305175781,79.25611877441406,33.650001525878906,41.189998626708984,151.97000122070312,14.989999771118164,54.0,160.9499969482422,164.75999450683594,63.77000045776367,44.400001525878906,76.25,48.130001068115234,421.5199890136719,162.7899932861328,12.930000305175781,133.00999450683594,131.8699951171875,42.29999923706055,109.55999755859375,116.91000366210938,49.970001220703125,86.16000366210938,270.20001220703125,76.05000305175781,88.38999938964844,59.2400016784668,170.27000427246094,166.44000244140625,139.35000610351562,72.26000213623047,64.80000305175781,115.43000030517578,268.25,133.0800018310547,147.1999969482422,12.829999923706055,56.7599983215332,22.959999084472656,158.50999450683594,99.81999969482422,38.220001220703125,295.3900146484375,112.66999816894531,69.91000366210938,32.279998779296875,92.23999786376953,35.77000045776367,44.209999084472656,48.79999923706055,30.670000076293945,74.0199966430664,56.34000015258789,87.91999816894531,34.11000061035156,56.130001068115234,249.4600067138672,96.16000366210938,83.76000213623047,93.2699966430664,83.37000274658203,176.67999267578125,23.59000015258789,107.04000091552734,333.7799987792969,68.13999938964844,25.440000534057617,61.2400016784668,74.98999786376953,177.57000732421875,104.43000030517578,214.77999877929688,80.94999694824219,85.86000061035156,69.33999633789062,87.87000274658203,70.9000015258789,331.04998779296875,49.72999954223633,52.13999938964844,,17.010000228881836,48.880001068115234,38.45000076293945,37.20000076293945,96.62999725341797,192.9199981689453,156.22999572753906,70.23999786376953,87.77999877929688,29.440000534057617,51.15999984741211,42.31999969482422,79.12999725341797,74.70999908447266,52.279998779296875,172.83999633789062,11.640000343322754,47.900001525878906,90.5,58.0,164.80999755859375,64.43000030517578,69.30000305175781,49.52000045776367,126.44000244140625,31.540000915527344,134.4199981689453,38.709999084472656,178.77999877929688,69.41000366210938,73.0,23.56999969482422,44.040000915527344,75.33999633789062,119.83999633789062,82.93000030517578,43.650001525878906,40.709999084472656,111.94000244140625,30.229999542236328,39.02000045776367,122.95999908447266,135.00999450683594,68.69000244140625,18.25,96.38999938964844,248.9499969482422,64.45999908447266,104.44999694824219,48.060001373291016,65.28500366210938,275.54998779296875,108.33999633789062,87.3499984741211,29.479999542236328,33.2599983215332,41.95000076293945,95.16999816894531,64.61000061035156,129.00999450683594,429.2699890136719,33.77000045776367,50.630001068115234,233.3800048828125,72.9800033569336,67.29000091552734,190.91000366210938,100.68000030517578,65.47000122070312,105.44000244140625,43.75,105.4000015258789,47.2400016784668,69.16000366210938,291.9200134277344,63.849998474121094,46.2599983215332,33.91999816894531,100.04000091552734,283.260009765625,191.64999389648438,159.07000732421875,39.5,66.77999877929688,,170.4199981689453,69.16000366210938,32.81999969482422,137.86000061035156,31.360000610351562,65.36000061035156,80.37000274658203,69.68000030517578,104.87999725341797,25.68000030517578,21.209999084472656,83.2699966430664,133.5500030517578,35.34000015258789,132.02999877929688,87.83000183105469,119.25,94.31999969482422,44.279998779296875,22.75,95.66999816894531,159.1999969482422,15.59000015258789,87.81999969482422,65.0,44.900001525878906,7.760000228881836,131.7100067138672,15.170000076293945
2019-02-01,114.56999969482422,75.7300033569336,56.59000015258789,54.86000061035156,82.91999816894531,71.87999725341797,79.31261444091797,34.310001373291016,41.0,155.8699951171875,15.1899995803833,55.65999984741211,160.72000122070312,165.9600067138672,65.80000305175781,43.70000076293945,76.4800033569336,48.70000076293945,417.0199890136719,166.11000061035156,12.859999656677246,132.99000549316406,131.17999267578125,41.81999969482422,116.5999984741211,118.37000274658203,49.34000015258789,87.13999938964844,268.7200012207031,76.04000091552734,88.30999755859375,58.470001220703125,172.85000610351562,166.52000427246094,140.99000549316406,71.87999725341797,65.38999938964844,115.04000091552734,266.80999755859375,134.1999969482422,149.07000732421875,12.739999771118164,57.130001068115234,23.170000076293945,160.1999969482422,100.87999725341797,39.599998474121094,292.4800109863281,112.19000244140625,69.55999755859375,32.599998474121094,91.22000122070312,36.11000061035156,44.560001373291016,48.869998931884766,30.440000534057617,75.18000030517578,55.20000076293945,88.0,33.84000015258789,56.29999923706055,247.4199981689453,97.11000061035156,84.05000305175781,94.05000305175781,83.76000213623047,183.80999755859375,23.989999771118164,107.83000183105469,330.9100036621094,68.11000061035156,25.0,61.47999954223633,74.33000183105469,179.30999755859375,102.77999877929688,220.5,81.37000274658203,86.75,68.8499984741211,88.81999969482422,71.16999816894531,340.95001220703125,48.900001525878906,51.779998779296875,,17.15999984741211,48.619998931884766,37.9900016784668,36.61000061035156,98.4000015258789,190.1999969482422,167.4600067138672,70.97000122070312,87.77999877929688,29.75,51.290000915527344,42.0,78.0199966430664,76.87999725341797,52.029998779296875,170.42999267578125,11.510000228881836,48.04999923706055,90.86000061035156,59.13999938964844,164.38999938964844,63.5,69.70999908447266,49.06999969482422,127.79000091552734,31.190000534057617,134.10000610351562,38.630001068115234,176.72000122070312,69.13999938964844,71.16999816894531,24.350000381469727,43.959999084472656,76.16999816894531,120.19000244140625,82.91999816894531,43.5,38.70000076293945,112.0199966430664,30.274999618530273,38.779998779296875,126.27999877929688,140.14999389648438,67.83000183105469,18.479999542236328,97.16999816894531,244.0,63.66999816894531,104.47000122070312,47.7599983215332,65.88999938964844,272.9599914550781,108.55999755859375,87.68000030517578,29.90999984741211,33.09000015258789,42.09000015258789,93.62000274658203,64.66999816894531,129.55999755859375,430.1499938964844,33.25,50.91999816894531,238.27999877929688,72.36000061035156,65.80000305175781,191.52000427246094,101.98999786376953,66.6500015258789,105.7699966430664,43.38999938964844,106.08999633789062,46.0099983215332,70.02999877929688,291.3599853515625,63.56999969482422,45.56999969482422,34.189998626708984,101.08000183105469,292.2300109863281,193.8300018310547,159.6699981689453,40.06999969482422,68.04000091552734,,168.6999969482422,69.41000366210938,32.650001525878906,138.07000732421875,32.119998931884766,65.91999816894531,81.87000274658203,70.13999938964844,103.83000183105469,25.579999923706055,21.280000686645508,83.55000305175781,135.02000427246094,34.4900016784668,132.30999755859375,87.61000061035156,121.97000122070312,95.18000030517578,45.2599983215332,22.670000076293945,95.20999908447266,159.0399932861328,15.6899995803833,85.26000213623047,64.44999694824219,44.88999938964844,7.539999961853027,130.63999938964844,15.329999923706055
2019-02-04,115.6500015258789,76.05000305175781,56.13999938964844,55.59000015258789,81.5999984741211,72.47000122070312,80.09416198730469,35.04999923706055,41.189998626708984,157.72000122070312,15.369999885559082,55.66999816894531,162.83999633789062,174.64999389648438,67.12999725341797,43.90999984741211,77.0999984741211,49.25,418.9599914550781,165.36000061035156,12.989999771118164,135.5,132.4600067138672,42.459999084472656,118.08000183105469,120.05000305175781,49.90999984741211,86.97000122070312,268.2099914550781,76.02999877929688,87.80999755859375,59.209999084472656,172.55999755859375,171.25,140.97000122070312,71.45999908447266,66.52999877929688,116.63999938964844,272.1199951171875,132.8800048828125,151.58999633789062,12.869999885559082,58.290000915527344,23.520000457763672,160.6699981689453,101.38999938964844,39.470001220703125,298.6099853515625,113.08999633789062,70.20999908447266,31.950000762939453,88.43000030517578,36.779998779296875,44.599998474121094,49.08000183105469,30.190000534057617,75.38999938964844,55.13999938964844,88.51000213623047,34.15999984741211,56.599998474121094,247.16000366210938,97.87000274658203,83.4800033569336,93.70999908447266,84.44999694824219,185.9600067138672,23.6200008392334,108.63999938964844,334.07000732421875,67.58000183105469,25.280000686645508,62.099998474121094,74.30000305175781,182.72999572753906,105.73999786376953,218.42999267578125,80.97000122070312,87.27999877929688,68.98999786376953,88.80000305175781,71.0999984741211,337.0,48.9900016784668,52.0,,17.270000457763672,48.959999084472656,37.72999954223633,36.939998626708984,99.2699966430664,192.33999633789062,166.8000030517578,71.44999694824219,87.81999969482422,29.549999237060547,51.56999969482422,42.040000915527344,78.58999633789062,77.22000122070312,51.97999954223633,170.94000244140625,11.859999656677246,48.0099983215332,91.2699966430664,60.720001220703125,165.49000549316406,64.2300033569336,70.23999786376953,49.40999984741211,128.7899932861328,31.219999313354492,135.19000244140625,38.47999954223633,177.5500030517578,69.0199966430664,72.44000244140625,24.579999923706055,44.439998626708984,76.27999877929688,119.9800033569336,84.08999633789062,42.65999984741211,38.0,110.19999694824219,30.709999084472656,38.93000030517578,123.75,141.5,68.83000183105469,18.40999984741211,98.0,244.5399932861328,64.05999755859375,103.66999816894531,47.72999954223633,64.98500061035156,278.7300109863281,109.27999877929688,87.93000030517578,30.149999618530273,33.54999923706055,42.790000915527344,94.33000183105469,65.37000274658203,129.02000427246094,425.3999938964844,33.81999969482422,51.529998779296875,239.55999755859375,72.5,66.02999877929688,187.97999572753906,101.80000305175781,67.6500015258789,106.26000213623047,43.90999984741211,106.58000183105469,46.779998779296875,71.22000122070312,289.0400085449219,66.63999938964844,46.11000061035156,34.45000076293945,100.68000030517578,293.1300048828125,194.41000366210938,161.1300048828125,40.310001373291016,67.73999786376953,,171.30999755859375,69.6500015258789,33.130001068115234,138.1300048828125,32.25,65.95999908447266,82.58000183105469,71.29000091552734,104.94000244140625,25.690000534057617,21.75,84.19000244140625,135.61000061035156,34.77000045776367,132.6699981689453,87.29000091552734,123.54000091552734,93.94000244140625,45.560001373291016,22.700000762939453,95.58000183105469,161.35000610351562,15.789999961853027,84.79000091552734,64.83999633789062,44.4900016784668,7.639999866485596,130.94000244140625,15.470000267028809
2019-02-05,116.91000366210938,75.80999755859375,56.13999938964844,55.40999984741211,81.4000015258789,73.73999786376953,80.73446655273438,35.33000183105469,41.470001220703125,158.99000549316406,15.600000381469727,54.40999984741211,162.41000366210938,175.97999572753906,67.6500015258789,44.150001525878906,77.1500015258789,49.2599983215332,421.8299865722656,166.50999450683594,13.119999885559082,135.47000122070312,132.0500030517578,42.45000076293945,118.31999969482422,119.37999725341797,50.20000076293945,87.37000274658203,266.30999755859375,76.30999755859375,88.02999877929688,59.52000045776367,174.49000549316406,174.17999267578125,141.91000366210938,71.30999755859375,66.7300033569336,116.04000091552734,270.0,132.8800048828125,152.4199981689453,12.979999542236328,57.880001068115234,23.600000381469727,162.77000427246094,102.56999969482422,39.369998931884766,299.989990234375,112.9000015258789,70.5,32.20000076293945,92.5199966430664,36.93000030517578,45.13999938964844,48.790000915527344,31.229999542236328,75.63999938964844,56.41999816894531,89.81999969482422,34.119998931884766,56.849998474121094,242.41000366210938,98.0999984741211,83.4800033569336,95.0999984741211,85.7699966430664,187.91000366210938,23.93000030517578,109.5199966430664,336.989990234375,69.33999633789062,25.219999313354492,61.380001068115234,74.52999877929688,183.72999572753906,107.22000122070312,224.02999877929688,81.75,89.0999984741211,68.83999633789062,88.95999908447266,70.91000366210938,340.70001220703125,49.220001220703125,52.04999923706055,,17.43000030517578,49.369998931884766,38.349998474121094,36.869998931884766,99.36000061035156,194.5,168.75,71.93000030517578,88.5,29.510000228881836,51.47999954223633,42.15999984741211,78.66000366210938,78.45999908447266,53.0,172.42999267578125,11.869999885559082,48.08000183105469,92.83999633789062,61.279998779296875,166.2100067138672,63.61000061035156,70.81999969482422,49.349998474121094,130.25999450683594,31.329999923706055,135.5500030517578,38.7400016784668,177.57000732421875,69.30999755859375,72.7699966430664,25.030000686645508,44.709999084472656,75.63999938964844,118.02999877929688,85.11000061035156,42.95000076293945,38.2599983215332,110.9800033569336,30.809999465942383,39.29999923706055,122.87000274658203,142.52999877929688,69.31999969482422,18.510000228881836,98.08000183105469,243.50999450683594,63.810001373291016,104.7699966430664,48.13999938964844,63.73500061035156,278.4599914550781,110.83000183105469,87.48999786376953,30.200000762939453,33.54999923706055,43.20000076293945,95.16000366210938,60.459999084472656,130.08999633789062,421.0400085449219,34.040000915527344,51.84000015258789,235.8300018310547,73.11000061035156,66.52999877929688,187.02000427246094,102.31999969482422,66.9000015258789,107.01000213623047,44.09000015258789,107.66000366210938,47.84000015258789,72.68000030517578,294.0400085449219,65.3499984741211,45.97999954223633,34.380001068115234,101.29000091552734,297.8599853515625,194.89999389648438,161.3000030517578,40.7599983215332,67.30000305175781,,170.11000061035156,69.94000244140625,32.83000183105469,138.35000610351562,32.29999923706055,66.04000091552734,83.23999786376953,71.20999908447266,105.37000274658203,25.790000915527344,21.3700008392334,85.52999877929688,135.7899932861328,34.619998931884766,132.92999267578125,88.19000244140625,126.20999908447266,96.0,45.13999938964844,22.899999618530273,95.86000061035156,161.4600067138672,15.890000343322754,85.95999908447266,64.7699966430664,41.849998474121094,7.809999942779541,129.75,15.40999984741211
2019-02-06,117.2699966430664,75.51000213623047,55.61000061035156,56.27000045776367,81.41999816894531,73.69999694824219,81.42184448242188,35.47999954223633,41.5,158.1300048828125,15.569999694824219,54.939998626708984,163.9600067138672,175.07000732421875,68.16000366210938,43.83000183105469,76.94000244140625,49.2599983215332,421.04998779296875,166.36000061035156,13.069999694824219,134.30999755859375,131.60000610351562,42.380001068115234,118.18000030517578,120.43000030517578,50.790000915527344,87.58000183105469,269.5,76.30000305175781,88.86000061035156,59.459999084472656,171.9499969482422,174.24000549316406,141.24000549316406,71.47000122070312,68.0199966430664,116.3499984741211,276.2099914550781,133.0,152.27999877929688,12.920000076293945,57.61000061035156,23.770000457763672,161.6999969482422,102.52999877929688,41.52000045776367,303.5199890136719,113.05000305175781,69.76000213623047,32.459999084472656,80.20999908447266,36.7599983215332,45.06999969482422,48.529998779296875,31.350000381469727,77.05000305175781,56.47999954223633,89.80999755859375,33.97999954223633,56.150001525878906,243.07000732421875,97.19000244140625,82.1500015258789,95.04000091552734,86.63999938964844,182.10000610351562,24.010000228881836,108.63999938964844,333.239990234375,68.8499984741211,24.690000534057617,60.439998626708984,74.94999694824219,183.80999755859375,106.02999877929688,224.6699981689453,82.98999786376953,89.63999938964844,68.88999938964844,92.55999755859375,70.23999786376953,343.510009765625,48.7599983215332,51.97999954223633,,17.3799991607666,49.77000045776367,37.529998779296875,36.7400016784668,99.80000305175781,193.9600067138672,168.35000610351562,71.79000091552734,88.45999908447266,29.610000610351562,51.439998626708984,42.11000061035156,78.27999877929688,78.4000015258789,53.209999084472656,170.27000427246094,11.90999984741211,48.02000045776367,93.58999633789062,61.459999084472656,166.0,63.65999984741211,70.5999984741211,49.20000076293945,130.22999572753906,31.09000015258789,136.32000732421875,39.310001373291016,176.17999267578125,69.0199966430664,72.51000213623047,24.8799991607666,44.9900016784668,74.7699966430664,117.2699966430664,84.61000061035156,42.41999816894531,38.63999938964844,114.2699966430664,30.760000228881836,39.90999984741211,121.02999877929688,141.49000549316406,69.18000030517578,18.600000381469727,97.91000366210938,244.0399932861328,63.88999938964844,104.0999984741211,47.689998626708984,63.08000183105469,280.4100036621094,107.9000015258789,87.66000366210938,30.579999923706055,33.77000045776367,43.27000045776367,95.58999633789062,62.779998779296875,130.66000366210938,406.55999755859375,34.119998931884766,51.93000030517578,236.8300018310547,73.48999786376953,67.56999969482422,182.38999938964844,106.4800033569336,67.01000213623047,106.0999984741211,44.02000045776367,108.81999969482422,43.0,72.69000244140625,293.45001220703125,65.33000183105469,46.20000076293945,34.52000045776367,100.8499984741211,299.75,192.9499969482422,160.74000549316406,40.56999969482422,66.62999725341797,,170.5800018310547,69.4800033569336,31.850000381469727,138.19000244140625,32.029998779296875,68.62999725341797,89.30999755859375,74.5,105.26000213623047,25.729999542236328,21.329999923706055,85.38999938964844,132.0500030517578,34.7599983215332,132.75,87.93000030517578,127.87999725341797,96.04000091552734,45.22999954223633,21.610000610351562,95.1500015258789,157.22000122070312,16.09000015258789,85.91999816894531,64.48999786376953,41.869998931884766,7.440000057220459,129.00999450683594,15.40999984741211
2019-02-07,115.5199966430664,76.7300033569336,57.689998626708984,55.599998474121094,79.83000183105469,73.76000213623047,81.01695251464844,35.25,40.939998626708984,154.92999267578125,18.709999084472656,52.400001525878906,159.7100067138672,176.0800018310547,66.98999786376953,43.45000076293945,76.36000061035156,49.41999816894531,418.1099853515625,162.77000427246094,12.819999694824219,134.08999633789062,132.61000061035156,41.47999954223633,118.29000091552734,118.62000274658203,54.25,86.20999908447266,269.0,75.33000183105469,88.9000015258789,58.86000061035156,172.4499969482422,170.94000244140625,147.4600067138672,71.19999694824219,65.2300033569336,117.37000274658203,269.0899963378906,132.0500030517578,150.55999755859375,12.710000038146973,57.47999954223633,22.520000457763672,160.75999450683594,102.87000274658203,39.380001068115234,303.05999755859375,113.08999633789062,69.8499984741211,31.399999618530273,84.0999984741211,36.16999816894531,43.459999084472656,50.459999084472656,31.06999969482422,76.30000305175781,54.7599983215332,89.86000061035156,33.72999954223633,57.029998779296875,241.55999755859375,96.87999725341797,81.5199966430664,95.0,85.80000305175781,182.25999450683594,23.979999542236328,108.87000274658203,308.7300109863281,69.13999938964844,24.93000030517578,59.34000015258789,74.41999816894531,181.3699951171875,105.2699966430664,220.27999877929688,80.95999908447266,90.73999786376953,69.72000122070312,92.33000183105469,69.76000213623047,344.510009765625,48.52000045776367,52.599998474121094,,17.6200008392334,49.599998474121094,38.45000076293945,36.540000915527344,100.66000366210938,195.27999877929688,166.8800048828125,72.66999816894531,89.4800033569336,28.899999618530273,50.95000076293945,42.47999954223633,76.22000122070312,77.98999786376953,53.2599983215332,172.00999450683594,11.859999656677246,47.84000015258789,91.61000061035156,62.720001220703125,162.30999755859375,63.060001373291016,71.4000015258789,49.2400016784668,128.0500030517578,31.3700008392334,133.19000244140625,33.47999954223633,175.27999877929688,70.0199966430664,71.86000061035156,24.389999389648438,43.7599983215332,71.55999755859375,112.75,84.01000213623047,41.310001373291016,37.900001525878906,112.7300033569336,30.375,38.650001525878906,118.79000091552734,140.1699981689453,70.0999984741211,18.31999969482422,97.30999755859375,239.4499969482422,62.810001373291016,103.02999877929688,47.22999954223633,63.90999984741211,278.5299987792969,110.05000305175781,89.73999786376953,28.639999389648438,33.209999084472656,42.86000061035156,95.72000122070312,62.58000183105469,129.64999389648438,406.4599914550781,33.88999938964844,51.290000915527344,236.1300048828125,72.73999786376953,67.72000122070312,180.17999267578125,103.86000061035156,66.33999633789062,104.8499984741211,44.470001220703125,107.94000244140625,43.959999084472656,73.27999877929688,293.6400146484375,65.11000061035156,46.5,35.58000183105469,101.22000122070312,297.6199951171875,195.0,161.57000732421875,44.27000045776367,64.91999816894531,,170.25,70.43000030517578,30.530000686645508,137.85000610351562,30.5,66.52999877929688,88.06999969482422,72.98999786376953,103.83000183105469,25.549999237060547,20.719999313354492,91.08000183105469,131.77999877929688,34.29999923706055,130.42999267578125,86.91999816894531,127.87000274658203,94.83999633789062,44.459999084472656,21.889999389648438,96.87000274658203,163.1300048828125,15.850000381469727,83.91000366210938,65.7300033569336,41.400001525878906,7.059999942779541,132.72000122070312,15.510000228881836
2019-02-08,115.4800033569336,79.9800033569336,58.08000183105469,56.0099983215332,80.87000274658203,74.26000213623047,80.77212524414062,35.2599983215332,41.0,156.6699981689453,17.84000015258789,52.470001220703125,160.9199981689453,175.9199981689453,66.0,43.61000061035156,75.83000183105469,49.5,421.010009765625,167.82000732421875,12.670000076293945,133.2899932861328,132.39999389648438,40.810001373291016,120.58000183105469,135.3699951171875,52.66999816894531,86.83000183105469,261.8999938964844,75.80000305175781,89.01000213623047,58.95000076293945,172.2899932861328,170.41000366210938,144.8300018310547,70.12000274658203,65.7300033569336,116.31999969482422,274.05999755859375,132.39999389648438,154.30999755859375,12.460000038146973,57.650001525878906,22.350000381469727,161.02999877929688,102.83999633789062,38.58000183105469,300.42999267578125,113.0199966430664,69.9000015258789,31.190000534057617,97.5999984741211,36.0,42.779998779296875,50.2400016784668,31.540000915527344,76.86000061035156,53.95000076293945,90.2699966430664,33.84000015258789,56.130001068115234,242.2100067138672,97.16999816894531,81.0199966430664,94.6500015258789,84.30999755859375,184.33999633789062,23.90999984741211,109.27999877929688,315.1199951171875,69.75,24.899999618530273,59.81999969482422,76.81999969482422,177.24000549316406,105.66999816894531,226.33999633789062,80.41000366210938,91.38999938964844,70.47000122070312,92.45999908447266,68.95999908447266,344.1600036621094,48.939998626708984,52.95000076293945,,17.829999923706055,49.779998779296875,37.720001220703125,36.5099983215332,100.52999877929688,194.5,168.1699981689453,73.05000305175781,90.30000305175781,28.969999313354492,50.58000183105469,42.939998626708984,75.69000244140625,78.83000183105469,53.900001525878906,172.42999267578125,11.609999656677246,47.470001220703125,91.83000183105469,62.08000183105469,162.08999633789062,63.400001525878906,71.12000274658203,49.25,126.81999969482422,31.239999771118164,133.7100067138672,33.86000061035156,174.75,70.05000305175781,70.87999725341797,24.610000610351562,43.779998779296875,70.62000274658203,112.6500015258789,85.69999694824219,41.86000061035156,37.810001373291016,113.69000244140625,30.34000015258789,38.70000076293945,120.13999938964844,140.3800048828125,70.08000183105469,18.010000228881836,97.12999725341797,241.25999450683594,62.0099983215332,102.81999969482422,47.459999084472656,62.900001525878906,280.6199951171875,112.31999969482422,89.08999633789062,28.350000381469727,33.38999938964844,42.619998931884766,96.80999755859375,63.34000015258789,128.80999755859375,406.8599853515625,34.0,51.72999954223633,233.22000122070312,73.33000183105469,68.36000061035156,181.33999633789062,104.55000305175781,66.73999786376953,104.86000061035156,44.59000015258789,108.0999984741211,43.40999984741211,73.4000015258789,296.05999755859375,66.19999694824219,46.900001525878906,35.31999969482422,101.91999816894531,300.1600036621094,193.58999633789062,161.72000122070312,42.88999938964844,64.95999908447266,,171.92999267578125,70.83000183105469,29.8700008392334,140.02000427246094,29.700000762939453,64.51000213623047,87.41000366210938,73.16000366210938,103.61000061035156,26.299999237060547,20.59000015258789,90.30999755859375,132.6699981689453,34.310001373291016,131.36000061035156,86.81999969482422,130.8000030517578,95.1500015258789,45.02000045776367,22.110000610351562,97.73999786376953,162.41000366210938,15.920000076293945,84.13999938964844,65.72000122070312,41.7599983215332,9.329999923706055,132.3699951171875,15.4399995803833
2019-02-11,115.6500015258789,79.05000305175781,58.41999816894531,57.5,80.20999908447266,74.05000305175781,80.49906158447266,35.59000015258789,41.09000015258789,159.91000366210938,18.389999389648438,53.58000183105469,163.10000610351562,177.8300018310547,65.93000030517578,43.790000915527344,75.62999725341797,49.61000061035156,423.7099914550781,170.02000427246094,12.40999984741211,132.91000366210938,133.32000732421875,40.209999084472656,122.2300033569336,134.17999267578125,53.189998626708984,86.2699966430664,257.1400146484375,76.08000183105469,89.5999984741211,58.45000076293945,171.75,169.42999267578125,144.2899932861328,70.47000122070312,65.7300033569336,117.25,275.7200012207031,132.0,154.57000732421875,12.220000267028809,58.279998779296875,22.709999084472656,161.8000030517578,103.61000061035156,38.58000183105469,306.8399963378906,112.97000122070312,70.06999969482422,30.920000076293945,97.23999786376953,36.59000015258789,43.689998626708984,50.56999969482422,31.149999618530273,78.01000213623047,54.959999084472656,90.08000183105469,33.650001525878906,55.9900016784668,242.77999877929688,96.87999725341797,81.38999938964844,94.12000274658203,83.63999938964844,185.99000549316406,23.940000534057617,109.62999725341797,316.8699951171875,69.98999786376953,24.84000015258789,59.900001525878906,77.16000366210938,181.08999633789062,105.25,229.17999267578125,80.08000183105469,91.51000213623047,70.76000213623047,92.52999877929688,68.79000091552734,337.82000732421875,49.099998474121094,52.83000183105469,,17.809999465942383,49.58000183105469,37.7599983215332,36.380001068115234,100.4000015258789,195.0500030517578,170.75999450683594,72.80999755859375,90.16999816894531,28.989999771118164,50.54999923706055,43.13999938964844,76.05999755859375,79.88999938964844,53.849998474121094,172.99000549316406,11.529999732971191,44.560001373291016,92.05000305175781,61.939998626708984,163.83999633789062,64.73999786376953,71.16999816894531,49.25,128.33999633789062,31.09000015258789,133.99000549316406,34.650001525878906,174.25999450683594,70.1500015258789,70.1500015258789,24.81999969482422,44.47999954223633,72.2699966430664,116.41000366210938,84.55999755859375,41.959999084472656,37.66999816894531,114.9000015258789,30.934999465942383,38.630001068115234,120.05000305175781,140.8000030517578,70.41000366210938,17.860000610351562,97.51000213623047,244.57000732421875,61.61000061035156,102.0,47.33000183105469,61.95000076293945,281.4700012207031,113.2300033569336,88.25,28.829999923706055,33.36000061035156,42.970001220703125,97.20999908447266,64.18000030517578,129.10000610351562,408.510009765625,34.06999969482422,52.189998626708984,238.75,73.54000091552734,69.16000366210938,181.52999877929688,104.76000213623047,66.91999816894531,104.72000122070312,44.529998779296875,108.93000030517578,40.11000061035156,73.86000061035156,298.1000061035156,66.29000091552734,47.45000076293945,35.45000076293945,102.51000213623047,301.25,194.1300048828125,164.35000610351562,42.18000030517578,64.83999633789062,,173.30999755859375,71.04000091552734,30.350000381469727,140.36000061035156,30.200000762939453,64.5,88.95999908447266,72.97000122070312,103.33999633789062,26.1200008392334,21.360000610351562,90.51000213623047,131.42999267578125,34.61000061035156,131.08999633789062,87.38999938964844,126.62999725341797,93.91999816894531,44.650001525878906,21.809999465942383,97.5999984741211,165.1300048828125,15.84000015258789,83.33999633789062,66.2699966430664,42.0099983215332,9.65999984741211,133.6999969482422,15.359999656677246
2019-02-12,114.73999786376953,80.5999984741211,60.06999969482422,58.81999969482422,81.4000015258789,74.83000183105469,81.58192443847656,36.189998626708984,41.79999923706055,162.7899932861328,18.600000381469727,55.13999938964844,165.10000610351562,181.1199951171875,67.13999938964844,44.720001220703125,76.66999816894531,49.65999984741211,437.239990234375,171.24000549316406,12.630000114440918,136.44000244140625,132.69000244140625,41.150001525878906,123.94999694824219,137.22000122070312,54.529998779296875,87.51000213623047,263.5,77.06999969482422,90.25,59.86000061035156,174.6199951171875,170.88999938964844,146.58999633789062,71.55999755859375,67.62999725341797,118.01000213623047,279.3900146484375,134.16000366210938,159.5399932861328,12.399999618530273,57.70000076293945,22.610000610351562,163.14999389648438,105.55000305175781,40.400001525878906,312.5199890136719,113.79000091552734,68.5999984741211,31.889999389648438,102.33000183105469,35.75,44.060001373291016,50.81999969482422,31.260000228881836,78.31999969482422,54.77000045776367,91.58000183105469,33.38999938964844,57.36000061035156,246.25999450683594,99.47000122070312,82.73999786376953,94.0,85.79000091552734,184.55999755859375,24.06999969482422,111.48999786376953,319.42999267578125,69.75,25.139999389648438,61.58000183105469,78.81999969482422,185.4499969482422,106.88999938964844,238.4499969482422,81.44000244140625,93.04000091552734,70.19000244140625,92.91000366210938,69.51000213623047,340.3999938964844,49.75,52.790000915527344,,17.729999542236328,50.84000015258789,40.61000061035156,35.790000915527344,100.9000015258789,193.4600067138672,171.27999877929688,73.19999694824219,90.2300033569336,28.8700008392334,51.209999084472656,43.77000045776367,77.16000366210938,79.69000244140625,54.900001525878906,172.58999633789062,11.489999771118164,45.91999816894531,93.56999969482422,62.02000045776367,170.08999633789062,65.48999786376953,73.02999877929688,48.88999938964844,132.30999755859375,30.389999389648438,136.0500030517578,35.349998474121094,173.97000122070312,70.27999877929688,70.41000366210938,24.739999771118164,45.77000045776367,72.9000015258789,116.5,84.37999725341797,42.90999984741211,38.709999084472656,118.19999694824219,31.43000030517578,39.029998779296875,124.26000213623047,141.99000549316406,69.3499984741211,17.989999771118164,98.73999786376953,254.32000732421875,62.66999816894531,104.08000183105469,48.11000061035156,63.04999923706055,284.0799865722656,111.61000061035156,89.26000213623047,28.809999465942383,34.02000045776367,42.97999954223633,98.20999908447266,64.1500015258789,131.66000366210938,416.3399963378906,34.61000061035156,53.2599983215332,242.1300048828125,75.05999755859375,69.30000305175781,184.00999450683594,106.44000244140625,68.06999969482422,107.61000061035156,44.22999954223633,110.66000366210938,41.66999816894531,70.55999755859375,302.5,66.94000244140625,47.54999923706055,36.02000045776367,103.75,308.1499938964844,195.25,167.0500030517578,42.33000183105469,65.75,,177.58999633789062,70.5999984741211,31.079999923706055,142.97000122070312,30.84000015258789,65.18000030517578,91.51000213623047,73.44999694824219,104.36000061035156,25.969999313354492,21.559999465942383,92.72000122070312,132.7100067138672,35.41999816894531,132.86000061035156,90.01000213623047,126.58000183105469,97.19999694824219,45.38999938964844,21.670000076293945,97.66999816894531,167.88999938964844,16.0,82.33000183105469,65.33000183105469,42.34000015258789,10.869999885559082,132.55999755859375,15.470000267028809
2019-02-13,118.86000061035156,81.30000305175781,60.40999984741211,56.93000030517578,81.05999755859375,75.25,81.43125915527344,36.2599983215332,42.22999954223633,160.39999389648438,18.81999969482422,56.0,166.75,180.94000244140625,67.3499984741211,44.900001525878906,77.66999816894531,49.790000915527344,433.989990234375,170.97000122070312,12.65999984741211,137.9499969482422,133.7100067138672,41.189998626708984,123.55999755859375,137.63999938964844,55.04999923706055,88.25,263.79998779296875,77.25,90.66999816894531,59.4900016784668,174.8699951171875,170.17999267578125,147.19000244140625,72.43000030517578,68.43000030517578,118.9000015258789,281.32000732421875,134.4499969482422,160.02999877929688,12.4399995803833,58.0,22.700000762939453,164.61000061035156,105.95999908447266,41.68000030517578,313.30999755859375,114.12000274658203,68.88999938964844,32.060001373291016,102.25,36.209999084472656,44.41999816894531,50.459999084472656,28.860000610351562,78.9000015258789,56.16999816894531,91.86000061035156,33.22999954223633,57.91999816894531,245.0500030517578,101.45999908447266,82.58000183105469,95.0,86.41000366210938,180.4199981689453,24.25,111.06999969482422,321.5400085449219,70.51000213623047,25.110000610351562,61.25,80.44000244140625,185.6199951171875,106.80999755859375,236.39999389648438,81.26000213623047,93.7699966430664,70.05999755859375,94.0,69.48999786376953,338.489990234375,49.88999938964844,52.779998779296875,,17.809999465942383,51.68000030517578,40.16999816894531,35.84000015258789,100.4000015258789,196.07000732421875,172.9600067138672,73.25,89.58999633789062,29.229999542236328,50.90999984741211,43.5,79.5199966430664,79.54000091552734,55.20000076293945,173.6999969482422,12.289999961853027,46.77000045776367,93.7699966430664,62.220001220703125,171.3699951171875,66.27999877929688,73.7699966430664,49.349998474121094,134.27999877929688,30.75,137.52000427246094,35.099998474121094,174.14999389648438,70.05999755859375,72.56999969482422,25.1299991607666,46.4900016784668,74.30999755859375,119.51000213623047,84.38999938964844,42.63999938964844,39.13999938964844,117.38999938964844,31.5049991607666,39.0,125.18000030517578,143.49000549316406,69.58000183105469,17.950000762939453,97.91000366210938,251.85000610351562,63.040000915527344,104.41000366210938,47.63999938964844,63.689998626708984,283.29998779296875,112.19000244140625,89.87999725341797,29.510000228881836,34.040000915527344,43.869998931884766,98.93000030517578,64.81999969482422,131.82000732421875,412.0899963378906,34.83000183105469,53.40999984741211,244.1199951171875,74.37999725341797,70.80000305175781,185.25,107.1500015258789,68.41000366210938,107.88999938964844,44.650001525878906,112.01000213623047,44.56999969482422,73.37000274658203,303.95001220703125,66.52999877929688,47.61000061035156,36.310001373291016,104.58999633789062,309.3399963378906,197.17999267578125,168.8800048828125,42.209999084472656,65.8499984741211,,176.22999572753906,70.81999969482422,32.279998779296875,141.97000122070312,31.399999618530273,64.9000015258789,91.19000244140625,73.58000183105469,103.7300033569336,26.049999237060547,21.649999618530273,92.70999908447266,133.52999877929688,35.599998474121094,132.72000122070312,90.0999984741211,127.45999908447266,97.73999786376953,45.7400016784668,22.700000762939453,97.44000244140625,166.4600067138672,16.049999237060547,83.45999908447266,65.4800033569336,42.400001525878906,11.170000076293945,134.50999450683594,15.59000015258789
2019-02-14,118.62000274658203,81.8499984741211,60.52000045776367,56.79999923706055,83.41999816894531,75.16999816894531,80.95103454589844,36.31999969482422,41.83000183105469,159.47000122070312,18.709999084472656,57.06999969482422,168.74000549316406,181.1300048828125,63.65999984741211,45.22999954223633,77.19999694824219,45.59000015258789,431.7799987792969,168.5,12.6899995803833,137.57000732421875,133.11000061035156,40.720001220703125,122.48999786376953,137.19000244140625,55.5,93.26000213623047,265.3299865722656,77.0199966430664,91.2300033569336,59.56999969482422,174.1300048828125,170.8000030517578,146.75999450683594,72.11000061035156,67.88999938964844,118.5199966430664,281.5,134.30999755859375,159.94000244140625,12.5,58.0,22.850000381469727,163.72999572753906,105.69000244140625,42.22999954223633,311.80999755859375,112.58999633789062,68.2699966430664,31.940000534057617,105.25,36.11000061035156,44.13999938964844,49.7400016784668,29.700000762939453,79.0199966430664,57.04999923706055,91.1500015258789,33.11000061035156,58.09000015258789,244.50999450683594,101.51000213623047,81.83000183105469,92.63999938964844,86.44999694824219,187.49000549316406,24.200000762939453,112.11000061035156,324.7099914550781,70.83999633789062,24.920000076293945,59.72999954223633,80.44999694824219,183.9199981689453,106.9000015258789,240.77999877929688,80.86000061035156,91.68000030517578,69.02999877929688,93.2300033569336,68.66000366210938,341.6000061035156,49.5,52.5,,17.68000030517578,51.47999954223633,39.79999923706055,35.27000045776367,99.54000091552734,195.72000122070312,169.6199951171875,72.9000015258789,87.81999969482422,27.3700008392334,50.459999084472656,43.04999923706055,79.6500015258789,78.87999725341797,54.95000076293945,175.7899932861328,12.15999984741211,45.880001068115234,93.3499984741211,62.33000183105469,169.07000732421875,66.27999877929688,73.95999908447266,49.41999816894531,133.0800018310547,30.940000534057617,136.47999572753906,35.150001525878906,175.8699951171875,70.0999984741211,72.18000030517578,25.639999389648438,46.34000015258789,74.87000274658203,119.37000274658203,84.3499984741211,42.540000915527344,38.380001068115234,117.5199966430664,31.184999465942383,38.88999938964844,125.93000030517578,143.16000366210938,69.77999877929688,17.75,97.12999725341797,250.75,62.41999816894531,103.94999694824219,47.34000015258789,63.959999084472656,280.6000061035156,113.80999755859375,85.5,29.030000686645508,33.72999954223633,43.68000030517578,99.44000244140625,64.3499984741211,141.1300048828125,414.9700012207031,34.650001525878906,53.93000030517578,240.38999938964844,73.97000122070312,70.70999908447266,185.72000122070312,106.97000122070312,66.4800033569336,107.26000213623047,44.63999938964844,111.80000305175781,45.43000030517578,72.05000305175781,305.0,66.55999755859375,47.31999969482422,35.900001525878906,103.5,306.1199951171875,195.8699951171875,169.6300048828125,42.099998474121094,66.56999969482422,,176.1199951171875,70.8499984741211,32.66999816894531,141.0800018310547,31.600000381469727,64.66999816894531,90.5999984741211,73.12000274658203,101.54000091552734,26.079999923706055,21.690000534057617,93.8499984741211,132.3699951171875,35.43000030517578,131.77000427246094,90.06999969482422,126.76000213623047,97.36000061035156,45.77000045776367,23.030000686645508,97.25,168.74000549316406,15.989999771118164,83.61000061035156,65.76000213623047,42.2400016784668,11.079999923706055,133.88999938964844,15.510000228881836
2019-02-15,121.05000305175781,83.45999908447266,60.5,57.90999984741211,84.1500015258789,75.77999877929688,81.82674407958984,36.58000183105469,42.720001220703125,159.0500030517578,18.770000457763672,57.58000183105469,171.27999877929688,184.61000061035156,64.02999877929688,46.290000915527344,78.7300033569336,45.2400016784668,439.17999267578125,169.55999755859375,12.930000305175781,139.36000061035156,133.6199951171875,41.9900016784668,123.6500015258789,138.6300048828125,55.47999954223633,95.37000274658203,271.1300048828125,78.30000305175781,92.2699966430664,60.18000030517578,175.1699981689453,170.4199981689453,150.1699981689453,73.43000030517578,68.72000122070312,119.0,281.92999267578125,136.3800048828125,160.35000610351562,12.75,57.70000076293945,23.540000915527344,169.25999450683594,107.58999633789062,41.9900016784668,316.6199951171875,115.91000366210938,68.80000305175781,32.11000061035156,106.83999633789062,35.04999923706055,44.95000076293945,50.70000076293945,30.899999618530273,80.37999725341797,57.88999938964844,92.69000244140625,33.2400016784668,59.099998474121094,248.33999633789062,104.23999786376953,83.36000061035156,93.54000091552734,86.66000366210938,190.05999755859375,24.100000381469727,113.58999633789062,332.8699951171875,70.70999908447266,25.06999969482422,59.5,81.80000305175781,179.3000030517578,108.22000122070312,263.95001220703125,82.13999938964844,91.55999755859375,69.68000030517578,94.37999725341797,70.66000366210938,349.05999755859375,50.22999954223633,52.77000045776367,,17.760000228881836,52.40999984741211,39.970001220703125,35.119998931884766,101.62999725341797,196.07000732421875,171.97000122070312,73.26000213623047,87.51000213623047,28.209999084472656,51.310001373291016,43.20000076293945,80.94999694824219,79.83999633789062,54.130001068115234,177.82000732421875,12.279999732971191,46.70000076293945,93.98999786376953,63.369998931884766,173.66000366210938,66.9800033569336,73.63999938964844,49.61000061035156,136.38999938964844,30.84000015258789,138.02999877929688,35.90999984741211,179.97000122070312,70.19999694824219,72.83999633789062,25.829999923706055,47.779998779296875,75.98999786376953,122.97000122070312,85.77999877929688,41.77000045776367,39.04999923706055,119.30999755859375,31.485000610351562,39.09000015258789,129.4199981689453,144.91000366210938,70.08999633789062,17.799999237060547,98.20999908447266,254.9600067138672,64.2699966430664,104.9000015258789,47.619998931884766,64.97000122070312,286.9800109863281,115.02999877929688,87.80999755859375,29.809999465942383,34.5099983215332,43.58000183105469,100.44999694824219,64.69000244140625,141.85000610351562,423.9700012207031,35.099998474121094,54.029998779296875,246.9499969482422,75.25,71.26000213623047,188.07000732421875,107.56999969482422,68.30999755859375,109.11000061035156,44.59000015258789,110.87000274658203,44.599998474121094,74.91999816894531,306.3599853515625,67.54000091552734,48.15999984741211,36.70000076293945,104.7300033569336,311.9599914550781,198.32000732421875,170.24000549316406,42.150001525878906,67.19000244140625,,177.77999877929688,71.19000244140625,33.29999923706055,144.1199951171875,31.850000381469727,65.16000366210938,91.0999984741211,73.55999755859375,103.37999725341797,26.299999237060547,17.15999984741211,94.83999633789062,133.7899932861328,35.7599983215332,132.74000549316406,91.19999694824219,127.08999633789062,98.47000122070312,45.709999084472656,23.3799991607666,98.05000305175781,169.99000549316406,16.09000015258789,84.4000015258789,66.31999969482422,41.97999954223633,11.039999961853027,134.86000061035156,16.0
2019-02-19,122.02999877929688,83.38999938964844,61.650001525878906,57.540000915527344,84.08000183105469,75.12999725341797,81.66666412353516,37.04999923706055,42.47999954223633,160.61000061035156,18.790000915527344,57.59000015258789,169.80999755859375,184.6199951171875,64.25,46.290000915527344,78.80000305175781,44.83000183105469,437.54998779296875,170.72000122070312,13.020000457763672,141.5500030517578,134.61000061035156,42.15999984741211,123.55999755859375,138.91000366210938,56.790000915527344,94.91000366210938,270.4100036621094,77.5199966430664,92.33000183105469,60.34000015258789,174.8000030517578,170.92999267578125,149.7899932861328,74.43000030517578,71.25,119.1500015258789,281.6600036621094,135.69000244140625,160.67999267578125,12.760000228881836,57.66999816894531,23.950000762939453,167.9600067138672,109.18000030517578,41.959999084472656,314.6499938964844,115.93000030517578,68.79000091552734,32.279998779296875,102.95999908447266,35.470001220703125,45.540000915527344,51.11000061035156,30.739999771118164,80.66000366210938,57.58000183105469,92.47000122070312,34.529998779296875,59.13999938964844,248.0399932861328,105.05999755859375,83.63999938964844,94.16000366210938,86.8499984741211,189.00999450683594,24.209999084472656,113.80999755859375,333.0,70.19999694824219,25.190000534057617,59.88999938964844,80.4800033569336,180.25,108.16999816894531,269.5799865722656,82.16999816894531,88.0199966430664,70.08999633789062,94.62000274658203,71.37000274658203,348.42999267578125,50.47999954223633,52.790000915527344,,17.780000686645508,52.040000915527344,40.43000030517578,35.38999938964844,102.0,196.4499969482422,172.66000366210938,73.54000091552734,87.94000244140625,28.469999313354492,51.310001373291016,43.29999923706055,81.30000305175781,80.37000274658203,54.060001373291016,177.60000610351562,13.09000015258789,47.060001373291016,93.87000274658203,62.310001373291016,173.3300018310547,67.44999694824219,75.0199966430664,49.86000061035156,136.55999755859375,30.959999084472656,138.6999969482422,35.529998779296875,179.25,70.4000015258789,73.30000305175781,26.09000015258789,47.22999954223633,75.06999969482422,121.0,85.62000274658203,42.0099983215332,39.2599983215332,118.95999908447266,31.229999542236328,39.529998779296875,128.92999267578125,144.44000244140625,69.91999816894531,17.84000015258789,98.23999786376953,255.24000549316406,64.37999725341797,104.9800033569336,47.77000045776367,64.41000366210938,287.3500061035156,116.41000366210938,88.05000305175781,29.229999542236328,34.20000076293945,43.84000015258789,99.75,64.95999908447266,141.49000549316406,420.6000061035156,34.90999984741211,53.31999969482422,248.85000610351562,75.0,71.80999755859375,186.86000061035156,107.27999877929688,67.88999938964844,108.7300033569336,44.720001220703125,110.7699966430664,44.47999954223633,74.56999969482422,304.6499938964844,67.01000213623047,48.099998474121094,37.08000183105469,105.0,311.2300109863281,197.64999389648438,171.3300018310547,42.189998626708984,67.62999725341797,,177.02999877929688,71.37999725341797,33.310001373291016,142.5399932861328,31.700000762939453,64.87000274658203,90.69000244140625,73.18000030517578,104.01000213623047,25.950000762939453,17.010000228881836,94.68000030517578,132.83999633789062,35.689998626708984,131.7100067138672,91.41999816894531,128.25,98.44000244140625,45.88999938964844,23.290000915527344,98.69999694824219,167.13999938964844,16.09000015258789,84.79000091552734,66.56999969482422,41.849998474121094,11.039999961853027,135.69000244140625,16.139999389648438
